x (mm),altura (µm)
0.000000000,-9.431433211
0.000391420,-9.428308785
0.000782840,-9.425184360
0.001174260,-9.422059935
0.001565680,-9.414935509
0.001957100,-9.411811084
0.002348520,-9.408686659
0.002739941,-9.405562233
0.003131361,-9.402437808
0.003522781,-9.399313383
0.003914201,-9.392188957
0.004305621,-9.389064532
0.004697041,-9.385940107
0.005088461,-9.382815682
0.005479881,-9.379691256
0.005871301,-9.372566831
0.006262721,-9.369442406
0.006654141,-9.366317980
0.007045561,-9.363193555
0.007436981,-9.356069130
0.007828401,-9.352944704
0.008219822,-9.349820279
0.008611242,-9.346695854
0.009002662,-9.343571428
0.009394082,-9.340447003
0.009785502,-9.333322578
0.010176922,-9.330198152
0.010568342,-9.327073727
0.010959762,-9.323949302
0.011351182,-9.320824877
0.011742602,-9.317700451
0.012134022,-9.314576026
0.012525442,-9.311451601
0.012916862,-9.308327175
0.013308282,-9.305202750
0.013699703,-9.298078325
0.014091123,-9.294953899
0.014482543,-9.291829474
0.014873963,-9.288705049
0.015265383,-9.285580623
0.015656803,-9.282456198
0.016048223,-9.279331773
0.016439643,-9.276207347
0.016831063,-9.273082922
0.017222483,-9.269958497
0.017613903,-9.266834072
0.018005323,-9.259709646
0.018396743,-9.256585221
0.018788163,-9.253460796
0.019179584,-9.250336370
0.019571004,-9.247211945
0.019962424,-9.244087520
0.020353844,-9.240963094
0.020745264,-9.233838669
0.021136684,-9.230714244
0.021528104,-9.227589818
0.021919524,-9.224465393
0.022310944,-9.221340968
0.022702364,-9.214216542
0.023093784,-9.211092117
0.023485204,-9.207967692
0.023876624,-9.204843267
0.024268044,-9.201718841
0.024659465,-9.198594416
0.025050885,-9.191469991
0.025442305,-9.188345565
0.025833725,-9.185221140
0.026225145,-9.182096715
0.026616565,-9.178972289
0.027007985,-9.175847864
0.027399405,-9.168723439
0.027790825,-9.165599013
0.028182245,-9.162474588
0.028573665,-9.159350163
0.028965085,-9.156225737
0.029356505,-9.153101312
0.029747925,-9.149976887
0.030139346,-9.146852462
0.030530766,-9.143728036
0.030922186,-9.140603611
0.031313606,-9.137479186
0.031705026,-9.134354760
0.032096446,-9.135230335
0.032487866,-9.132105910
0.032879286,-9.128981484
0.033270706,-9.125857059
0.033662126,-9.122732634
0.034053546,-9.123608208
0.034444966,-9.120483783
0.034836386,-9.117359358
0.035227806,-9.118234932
0.035619227,-9.115110507
0.036010647,-9.111986082
0.036402067,-9.112861657
0.036793487,-9.109737231
0.037184907,-9.110612806
0.037576327,-9.107488381
0.037967747,-9.108363955
0.038359167,-9.105239530
0.038750587,-9.106115105
0.039142007,-9.106990679
0.039533427,-9.103866254
0.039924847,-9.104741829
0.040316267,-9.105617403
0.040707687,-9.102492978
0.041099108,-9.103368553
0.041490528,-9.104244127
0.041881948,-9.101119702
0.042273368,-9.101995277
0.042664788,-9.102870852
0.043056208,-9.103746426
0.043447628,-9.100622001
0.043839048,-9.101497576
0.044230468,-9.102373150
0.044621888,-9.103248725
0.045013308,-9.104124300
0.045404728,-9.100999874
0.045796148,-9.101875449
0.046187568,-9.102751024
0.046578989,-9.099626598
0.046970409,-9.100502173
0.047361829,-9.101377748
0.047753249,-9.102253322
0.048144669,-9.099128897
0.048536089,-9.100004472
0.048927509,-9.100880047
0.049318929,-9.097755621
0.049710349,-9.098631196
0.050101769,-9.095506771
0.050493189,-9.096382345
0.050884609,-9.093257920
0.051276029,-9.094133495
0.051667450,-9.091009069
0.052058870,-9.091884644
0.052450290,-9.088760219
0.052841710,-9.085635793
0.053233130,-9.086511368
0.053624550,-9.083386943
0.054015970,-9.080262517
0.054407390,-9.077138092
0.054798810,-9.078013667
0.055190230,-9.074889242
0.055581650,-9.071764816
0.055973070,-9.068640391
0.056364490,-9.065515966
0.056755910,-9.062391540
0.057147331,-9.059267115
0.057538751,-9.056142690
0.057930171,-9.053018264
0.058321591,-9.049893839
0.058713011,-9.046769414
0.059104431,-9.043644988
0.059495851,-9.040520563
0.059887271,-9.037396138
0.060278691,-9.034271712
0.060670111,-9.031147287
0.061061531,-9.028022862
0.061452951,-9.024898437
0.061844371,-9.021774011
0.062235791,-9.018649586
0.062627212,-9.015525161
0.063018632,-9.012400735
0.063410052,-9.009276310
0.063801472,-9.006151885
0.064192892,-9.003027459
0.064584312,-8.999903034
0.064975732,-8.996778609
0.065367152,-8.993654183
0.065758572,-8.990529758
0.066149992,-8.991405333
0.066541412,-8.988280907
0.066932832,-8.985156482
0.067324252,-8.982032057
0.067715672,-8.978907632
0.068107093,-8.975783206
0.068498513,-8.972658781
0.068889933,-8.973534356
0.069281353,-8.970409930
0.069672773,-8.967285505
0.070064193,-8.964161080
0.070455613,-8.961036654
0.070847033,-8.957912229
0.071238453,-8.958787804
0.071629873,-8.955663378
0.072021293,-8.952538953
0.072412713,-8.949414528
0.072804133,-8.950290102
0.073195553,-8.947165677
0.073586974,-8.944041252
0.073978394,-8.944916827
0.074369814,-8.941792401
0.074761234,-8.938667976
0.075152654,-8.939543551
0.075544074,-8.936419125
0.075935494,-8.933294700
0.076326914,-8.934170275
0.076718334,-8.931045849
0.077109754,-8.927921424
0.077501174,-8.924796999
0.077892594,-8.925672573
0.078284014,-8.922548148
0.078675434,-8.919423723
0.079066855,-8.916299297
0.079458275,-8.917174872
0.079849695,-8.914050447
0.080241115,-8.910926022
0.080632535,-8.907801596
0.081023955,-8.904677171
0.081415375,-8.901552746
0.081806795,-8.898428320
0.082198215,-8.895303895
0.082589635,-8.888179470
0.082981055,-8.885055044
0.083372475,-8.881930619
0.083763895,-8.874806194
0.084155315,-8.871681768
0.084546736,-8.868557343
0.084938156,-8.861432918
0.085329576,-8.854308492
0.085720996,-8.851184067
0.086112416,-8.844059642
0.086503836,-8.836935217
0.086895256,-8.833810791
0.087286676,-8.826686366
0.087678096,-8.819561941
0.088069516,-8.812437515
0.088460936,-8.805313090
0.088852356,-8.798188665
0.089243776,-8.787064239
0.089635196,-8.779939814
0.090026617,-8.772815389
0.090418037,-8.765690963
0.090809457,-8.758566538
0.091200877,-8.751442113
0.091592297,-8.740317687
0.091983717,-8.733193262
0.092375137,-8.726068837
0.092766557,-8.714944412
0.093157977,-8.707819986
0.093549397,-8.700695561
0.093940817,-8.693571136
0.094332237,-8.682446710
0.094723657,-8.675322285
0.095115078,-8.668197860
0.095506498,-8.657073434
0.095897918,-8.649949009
0.096289338,-8.642824584
0.096680758,-8.635700158
0.097072178,-8.628575733
0.097463598,-8.621451308
0.097855018,-8.614326882
0.098246438,-8.607202457
0.098637858,-8.600078032
0.099029278,-8.592953607
0.099420698,-8.585829181
0.099812118,-8.582704756
0.100203538,-8.575580331
0.100594959,-8.568455905
0.100986379,-8.565331480
0.101377799,-8.562207055
0.101769219,-8.555082629
0.102160639,-8.551958204
0.102552059,-8.548833779
0.102943479,-8.545709353
0.103334899,-8.542584928
0.103726319,-8.539460503
0.104117739,-8.536336077
0.104509159,-8.533211652
0.104900579,-8.530087227
0.105291999,-8.530962802
0.105683419,-8.527838376
0.106074840,-8.524713951
0.106466260,-8.525589526
0.106857680,-8.522465100
0.107249100,-8.523340675
0.107640520,-8.524216250
0.108031940,-8.521091824
0.108423360,-8.521967399
0.108814780,-8.522842974
0.109206200,-8.523718548
0.109597620,-8.524594123
0.109989040,-8.521469698
0.110380460,-8.522345272
0.110771880,-8.523220847
0.111163300,-8.524096422
0.111554721,-8.524971997
0.111946141,-8.525847571
0.112337561,-8.526723146
0.112728981,-8.527598721
0.113120401,-8.528474295
0.113511821,-8.529349870
0.113903241,-8.530225445
0.114294661,-8.531101019
0.114686081,-8.531976594
0.115077501,-8.532852169
0.115468921,-8.533727743
0.115860341,-8.534603318
0.116251761,-8.535478893
0.116643181,-8.536354467
0.117034602,-8.537230042
0.117426022,-8.538105617
0.117817442,-8.538981191
0.118208862,-8.543856766
0.118600282,-8.544732341
0.118991702,-8.545607916
0.119383122,-8.546483490
0.119774542,-8.547359065
0.120165962,-8.548234640
0.120557382,-8.553110214
0.120948802,-8.553985789
0.121340222,-8.554861364
0.121731642,-8.555736938
0.122123062,-8.560612513
0.122514483,-8.561488088
0.122905903,-8.562363662
0.123297323,-8.567239237
0.123688743,-8.568114812
0.124080163,-8.568990386
0.124471583,-8.573865961
0.124863003,-8.574741536
0.125254423,-8.575617111
0.125645843,-8.576492685
0.126037263,-8.577368260
0.126428683,-8.582243835
0.126820103,-8.583119409
0.127211523,-8.583994984
0.127602943,-8.584870559
0.127994364,-8.585746133
0.128385784,-8.586621708
0.128777204,-8.587497283
0.129168624,-8.588372857
0.129560044,-8.589248432
0.129951464,-8.590124007
0.130342884,-8.590999581
0.130734304,-8.591875156
0.131125724,-8.588750731
0.131517144,-8.589626306
0.131908564,-8.590501880
0.132299984,-8.591377455
0.132691404,-8.588253030
0.133082824,-8.589128604
0.133474245,-8.590004179
0.133865665,-8.586879754
0.134257085,-8.587755328
0.134648505,-8.584630903
0.135039925,-8.585506478
0.135431345,-8.582382052
0.135822765,-8.583257627
0.136214185,-8.580133202
0.136605605,-8.581008776
0.136997025,-8.577884351
0.137388445,-8.574759926
0.137779865,-8.575635501
0.138171285,-8.572511075
0.138562705,-8.573386650
0.138954126,-8.570262225
0.139345546,-8.571137799
0.139736966,-8.568013374
0.140128386,-8.564888949
0.140519806,-8.565764523
0.140911226,-8.562640098
0.141302646,-8.559515673
0.141694066,-8.560391247
0.142085486,-8.557266822
0.142476906,-8.554142397
0.142868326,-8.555017971
0.143259746,-8.551893546
0.143651166,-8.548769121
0.144042587,-8.549644696
0.144434007,-8.546520270
0.144825427,-8.543395845
0.145216847,-8.540271420
0.145608267,-8.537146994
0.145999687,-8.538022569
0.146391107,-8.534898144
0.146782527,-8.531773718
0.147173947,-8.528649293
0.147565367,-8.529524868
0.147956787,-8.526400442
0.148348207,-8.523276017
0.148739627,-8.520151592
0.149131047,-8.517027166
0.149522468,-8.517902741
0.149913888,-8.514778316
0.150305308,-8.511653891
0.150696728,-8.508529465
0.151088148,-8.509405040
0.151479568,-8.506280615
0.151870988,-8.503156189
0.152262408,-8.500031764
0.152653828,-8.500907339
0.153045248,-8.497782913
0.153436668,-8.498658488
0.153828088,-8.495534063
0.154219508,-8.492409637
0.154610928,-8.493285212
0.155002349,-8.490160787
0.155393769,-8.491036361
0.155785189,-8.487911936
0.156176609,-8.488787511
0.156568029,-8.485663086
0.156959449,-8.486538660
0.157350869,-8.483414235
0.157742289,-8.484289810
0.158133709,-8.485165384
0.158525129,-8.482040959
0.158916549,-8.482916534
0.159307969,-8.479792108
0.159699389,-8.480667683
0.160090809,-8.481543258
0.160482230,-8.478418832
0.160873650,-8.479294407
0.161265070,-8.476169982
0.161656490,-8.477045556
0.162047910,-8.477921131
0.162439330,-8.474796706
0.162830750,-8.475672281
0.163222170,-8.472547855
0.163613590,-8.473423430
0.164005010,-8.474299005
0.164396430,-8.471174579
0.164787850,-8.472050154
0.165179270,-8.468925729
0.165570690,-8.469801303
0.165962111,-8.470676878
0.166353531,-8.467552453
0.166744951,-8.468428027
0.167136371,-8.465303602
0.167527791,-8.466179177
0.167919211,-8.463054751
0.168310631,-8.463930326
0.168702051,-8.460805901
0.169093471,-8.461681476
0.169484891,-8.458557050
0.169876311,-8.459432625
0.170267731,-8.456308200
0.170659151,-8.457183774
0.171050571,-8.458059349
0.171441992,-8.454934924
0.171833412,-8.455810498
0.172224832,-8.456686073
0.172616252,-8.453561648
0.173007672,-8.454437222
0.173399092,-8.451312797
0.173790512,-8.452188372
0.174181932,-8.453063946
0.174573352,-8.453939521
0.174964772,-8.450815096
0.175356192,-8.451690671
0.175747612,-8.452566245
0.176139032,-8.449441820
0.176530452,-8.450317395
0.176921873,-8.451192969
0.177313293,-8.452068544
0.177704713,-8.452944119
0.178096133,-8.449819693
0.178487553,-8.450695268
0.178878973,-8.451570843
0.179270393,-8.452446417
0.179661813,-8.453321992
0.180053233,-8.450197567
0.180444653,-8.451073141
0.180836073,-8.451948716
0.181227493,-8.452824291
0.181618913,-8.449699866
0.182010333,-8.450575440
0.182401754,-8.447451015
0.182793174,-8.448326590
0.183184594,-8.445202164
0.183576014,-8.442077739
0.183967434,-8.442953314
0.184358854,-8.439828888
0.184750274,-8.436704463
0.185141694,-8.433580038
0.185533114,-8.430455612
0.185924534,-8.427331187
0.186315954,-8.424206762
0.186707374,-8.421082336
0.187098794,-8.417957911
0.187490214,-8.414833486
0.187881635,-8.407709061
0.188273055,-8.404584635
0.188664475,-8.401460210
0.189055895,-8.394335785
0.189447315,-8.391211359
0.189838735,-8.384086934
0.190230155,-8.380962509
0.190621575,-8.373838083
0.191012995,-8.370713658
0.191404415,-8.363589233
0.191795835,-8.360464807
0.192187255,-8.353340382
0.192578675,-8.350215957
0.192970096,-8.343091531
0.193361516,-8.339967106
0.193752936,-8.336842681
0.194144356,-8.329718256
0.194535776,-8.326593830
0.194927196,-8.323469405
0.195318616,-8.320344980
0.195710036,-8.313220554
0.196101456,-8.310096129
0.196492876,-8.306971704
0.196884296,-8.303847278
0.197275716,-8.300722853
0.197667136,-8.297598428
0.198058556,-8.294474002
0.198449977,-8.291349577
0.198841397,-8.288225152
0.199232817,-8.285100726
0.199624237,-8.281976301
0.200015657,-8.282851876
0.200407077,-8.279727451
0.200798497,-8.276603025
0.201189917,-8.273478600
0.201581337,-8.274354175
0.201972757,-8.271229749
0.202364177,-8.268105324
0.202755597,-8.264980899
0.203147017,-8.265856473
0.203538437,-8.262732048
0.203929858,-8.259607623
0.204321278,-8.256483197
0.204712698,-8.257358772
0.205104118,-8.254234347
0.205495538,-8.251109921
0.205886958,-8.251985496
0.206278378,-8.248861071
0.206669798,-8.249736646
0.207061218,-8.246612220
0.207452638,-8.243487795
0.207844058,-8.244363370
0.208235478,-8.241238944
0.208626898,-8.242114519
0.209018318,-8.238990094
0.209409739,-8.239865668
0.209801159,-8.236741243
0.210192579,-8.237616818
0.210583999,-8.234492392
0.210975419,-8.235367967
0.211366839,-8.232243542
0.211758259,-8.233119116
0.212149679,-8.229994691
0.212541099,-8.226870266
0.212932519,-8.227745841
0.213323939,-8.224621415
0.213715359,-8.225496990
0.214106779,-8.222372565
0.214498199,-8.223248139
0.214889620,-8.220123714
0.215281040,-8.216999289
0.215672460,-8.217874863
0.216063880,-8.214750438
0.216455300,-8.211626013
0.216846720,-8.208501587
0.217238140,-8.205377162
0.217629560,-8.206252737
0.218020980,-8.203128311
0.218412400,-8.200003886
0.218803820,-8.196879461
0.219195240,-8.193755036
0.219586660,-8.190630610
0.219978080,-8.191506185
0.220369501,-8.188381760
0.220760921,-8.185257334
0.221152341,-8.182132909
0.221543761,-8.179008484
0.221935181,-8.175884058
0.222326601,-8.176759633
0.222718021,-8.173635208
0.223109441,-8.170510782
0.223500861,-8.167386357
0.223892281,-8.164261932
0.224283701,-8.165137506
0.224675121,-8.162013081
0.225066541,-8.158888656
0.225457961,-8.159764231
0.225849382,-8.156639805
0.226240802,-8.153515380
0.226632222,-8.154390955
0.227023642,-8.151266529
0.227415062,-8.152142104
0.227806482,-8.149017679
0.228197902,-8.145893253
0.228589322,-8.146768828
0.228980742,-8.143644403
0.229372162,-8.140519977
0.229763582,-8.141395552
0.230155002,-8.138271127
0.230546422,-8.135146701
0.230937842,-8.132022276
0.231329263,-8.132897851
0.231720683,-8.129773426
0.232112103,-8.126649000
0.232503523,-8.123524575
0.232894943,-8.120400150
0.233286363,-8.117275724
0.233677783,-8.114151299
0.234069203,-8.111026874
0.234460623,-8.103902448
0.234852043,-8.100778023
0.235243463,-8.097653598
0.235634883,-8.094529172
0.236026303,-8.087404747
0.236417724,-8.084280322
0.236809144,-8.077155896
0.237200564,-8.074031471
0.237591984,-8.066907046
0.237983404,-8.063782621
0.238374824,-8.060658195
0.238766244,-8.053533770
0.239157664,-8.050409345
0.239549084,-8.043284919
0.239940504,-8.040160494
0.240331924,-8.033036069
0.240723344,-8.029911643
0.241114764,-8.022787218
0.241506184,-8.019662793
0.241897605,-8.012538367
0.242289025,-8.009413942
0.242680445,-8.002289517
0.243071865,-7.999165091
0.243463285,-7.996040666
0.243854705,-7.992916241
0.244246125,-7.985791816
0.244637545,-7.982667390
0.245028965,-7.979542965
0.245420385,-7.976418540
0.245811805,-7.973294114
0.246203225,-7.970169689
0.246594645,-7.967045264
0.246986065,-7.963920838
0.247377486,-7.960796413
0.247768906,-7.957671988
0.248160326,-7.954547562
0.248551746,-7.951423137
0.248943166,-7.948298712
0.249334586,-7.945174286
0.249726006,-7.942049861
0.250117426,-7.938925436
0.250508846,-7.935801011
0.250900266,-7.936676585
0.251291686,-7.933552160
0.251683106,-7.930427735
0.252074526,-7.927303309
0.252465946,-7.928178884
0.252857367,-7.925054459
0.253248787,-7.921930033
0.253640207,-7.918805608
0.254031627,-7.919681183
0.254423047,-7.916556757
0.254814467,-7.913432332
0.255205887,-7.914307907
0.255597307,-7.911183481
0.255988727,-7.908059056
0.256380147,-7.908934631
0.256771567,-7.905810206
0.257162987,-7.902685780
0.257554407,-7.903561355
0.257945827,-7.900436930
0.258337248,-7.897312504
0.258728668,-7.898188079
0.259120088,-7.895063654
0.259511508,-7.895939228
0.259902928,-7.892814803
0.260294348,-7.893690378
0.260685768,-7.890565952
0.261077188,-7.891441527
0.261468608,-7.888317102
0.261860028,-7.889192676
0.262251448,-7.886068251
0.262642868,-7.886943826
0.263034288,-7.883819401
0.263425708,-7.884694975
0.263817129,-7.881570550
0.264208549,-7.882446125
0.264599969,-7.879321699
0.264991389,-7.880197274
0.265382809,-7.877072849
0.265774229,-7.877948423
0.266165649,-7.878823998
0.266557069,-7.875699573
0.266948489,-7.876575147
0.267339909,-7.873450722
0.267731329,-7.874326297
0.268122749,-7.871201871
0.268514169,-7.868077446
0.268905589,-7.868953021
0.269297010,-7.865828596
0.269688430,-7.866704170
0.270079850,-7.863579745
0.270471270,-7.860455320
0.270862690,-7.861330894
0.271254110,-7.858206469
0.271645530,-7.855082044
0.272036950,-7.851957618
0.272428370,-7.852833193
0.272819790,-7.849708768
0.273211210,-7.846584342
0.273602630,-7.843459917
0.273994050,-7.840335492
0.274385470,-7.837211066
0.274776891,-7.834086641
0.275168311,-7.830962216
0.275559731,-7.827837791
0.275951151,-7.828713365
0.276342571,-7.825588940
0.276733991,-7.822464515
0.277125411,-7.819340089
0.277516831,-7.816215664
0.277908251,-7.813091239
0.278299671,-7.809966813
0.278691091,-7.806842388
0.279082511,-7.803717963
0.279473931,-7.804593537
0.279865351,-7.801469112
0.280256772,-7.798344687
0.280648192,-7.795220261
0.281039612,-7.796095836
0.281431032,-7.792971411
0.281822452,-7.789846986
0.282213872,-7.786722560
0.282605292,-7.787598135
0.282996712,-7.784473710
0.283388132,-7.781349284
0.283779552,-7.782224859
0.284170972,-7.779100434
0.284562392,-7.775976008
0.284953812,-7.776851583
0.285345233,-7.773727158
0.285736653,-7.770602732
0.286128073,-7.771478307
0.286519493,-7.768353882
0.286910913,-7.765229456
0.287302333,-7.766105031
0.287693753,-7.762980606
0.288085173,-7.759856181
0.288476593,-7.760731755
0.288868013,-7.757607330
0.289259433,-7.754482905
0.289650853,-7.751358479
0.290042273,-7.752234054
0.290433693,-7.749109629
0.290825114,-7.745985203
0.291216534,-7.742860778
0.291607954,-7.743736353
0.291999374,-7.740611927
0.292390794,-7.737487502
0.292782214,-7.734363077
0.293173634,-7.735238651
0.293565054,-7.732114226
0.293956474,-7.728989801
0.294347894,-7.729865376
0.294739314,-7.726740950
0.295130734,-7.723616525
0.295522154,-7.724492100
0.295913574,-7.721367674
0.296304995,-7.718243249
0.296696415,-7.719118824
0.297087835,-7.715994398
0.297479255,-7.712869973
0.297870675,-7.713745548
0.298262095,-7.710621122
0.298653515,-7.711496697
0.299044935,-7.708372272
0.299436355,-7.709247846
0.299827775,-7.706123421
0.300219195,-7.706998996
0.300610615,-7.707874571
0.301002035,-7.704750145
0.301393455,-7.705625720
0.301784876,-7.702501295
0.302176296,-7.703376869
0.302567716,-7.700252444
0.302959136,-7.701128019
0.303350556,-7.698003593
0.303741976,-7.698879168
0.304133396,-7.699754743
0.304524816,-7.696630317
0.304916236,-7.697505892
0.305307656,-7.694381467
0.305699076,-7.695257041
0.306090496,-7.696132616
0.306481916,-7.693008191
0.306873336,-7.693883765
0.307264757,-7.694759340
0.307656177,-7.691634915
0.308047597,-7.692510490
0.308439017,-7.693386064
0.308830437,-7.690261639
0.309221857,-7.691137214
0.309613277,-7.692012788
0.310004697,-7.688888363
0.310396117,-7.689763938
0.310787537,-7.690639512
0.311178957,-7.691515087
0.311570377,-7.688390662
0.311961797,-7.689266236
0.312353217,-7.690141811
