x (mm),altura (µm)
0.000000000,-10.427951046
0.000471298,-10.394040588
0.000942596,-10.364130130
0.001413894,-10.338219671
0.001885192,-10.312309213
0.002356490,-10.290398755
0.002827788,-10.264488297
0.003299086,-10.246577838
0.003770384,-10.224667380
0.004241682,-10.206756922
0.004712980,-10.192846464
0.005184278,-10.174936006
0.005655575,-10.165025547
0.006126873,-10.151115089
0.006598171,-10.141204631
0.007069469,-10.131294173
0.007540767,-10.121383714
0.008012065,-10.115473256
0.008483363,-10.109562798
0.008954661,-10.103652340
0.009425959,-10.101741881
0.009897257,-10.099831423
0.010368555,-10.097920965
0.010839853,-10.096010507
0.011311151,-10.094100049
0.011782449,-10.096189590
0.012253747,-10.098279132
0.012725045,-10.096368674
0.013196343,-10.102458216
0.013667641,-10.104547757
0.014138939,-10.106637299
0.014610237,-10.112726841
0.015081535,-10.118816383
0.015552833,-10.120905925
0.016024130,-10.126995466
0.016495428,-10.137085008
0.016966726,-10.143174550
0.017438024,-10.153264092
0.017909322,-10.163353633
0.018380620,-10.169443175
0.018851918,-10.179532717
0.019323216,-10.189622259
0.019794514,-10.203711800
0.020265812,-10.213801342
0.020737110,-10.227890884
0.021208408,-10.241980426
0.021679706,-10.256069968
0.022151004,-10.270159509
0.022622302,-10.284249051
0.023093600,-10.302338593
0.023564898,-10.316428135
0.024036196,-10.338517676
0.024507494,-10.352607218
0.024978792,-10.374696760
0.025450090,-10.396786302
0.025921388,-10.410875844
0.026392685,-10.432965385
0.026863983,-10.451054927
0.027335281,-10.477144469
0.027806579,-10.495234011
0.028277877,-10.517323552
0.028749175,-10.535413094
0.029220473,-10.561502636
0.029691771,-10.583592178
0.030163069,-10.601681719
0.030634367,-10.627771261
0.031105665,-10.645860803
0.031576963,-10.667950345
0.032048261,-10.690039887
0.032519559,-10.712129428
0.032990857,-10.734218970
0.033462155,-10.752308512
0.033933453,-10.774398054
0.034404751,-10.792487595
0.034876049,-10.814577137
0.035347347,-10.832666679
0.035818645,-10.854756221
0.036289943,-10.872845763
0.036761240,-10.894935304
0.037232538,-10.913024846
0.037703836,-10.931114388
0.038175134,-10.953203930
0.038646432,-10.967293471
0.039117730,-10.989383013
0.039589028,-11.007472555
0.040060326,-11.025562097
0.040531624,-11.043651638
0.041002922,-11.065741180
0.041474220,-11.087830722
0.041945518,-11.105920264
0.042416816,-11.128009806
0.042888114,-11.146099347
0.043359412,-11.168188889
0.043830710,-11.190278431
0.044302008,-11.212367973
0.044773306,-11.234457514
0.045244604,-11.260547056
0.045715902,-11.286636598
0.046187200,-11.308726140
0.046658498,-11.338815682
0.047129795,-11.360905223
0.047601093,-11.390994765
0.048072391,-11.413084307
0.048543689,-11.443173849
0.049014987,-11.469263390
0.049486285,-11.499352932
0.049957583,-11.529442474
0.050428881,-11.555532016
0.050900179,-11.585621557
0.051371477,-11.611711099
0.051842775,-11.645800641
0.052314073,-11.667890183
0.052785371,-11.701979725
0.053256669,-11.724069266
0.053727967,-11.754158808
0.054199265,-11.784248350
0.054670563,-11.810337892
0.055141861,-11.836427433
0.055613159,-11.858516975
0.056084457,-11.884606517
0.056555755,-11.906696059
0.057027053,-11.928785601
0.057498350,-11.954875142
0.057969648,-11.972964684
0.058440946,-11.991054226
0.058912244,-12.009143768
0.059383542,-12.027233309
0.059854840,-12.041322851
0.060326138,-12.055412393
0.060797436,-12.069501935
0.061268734,-12.079591476
0.061740032,-12.093681018
0.062211330,-12.099770560
0.062682628,-12.109860102
0.063153926,-12.115949644
0.063625224,-12.122039185
0.064096522,-12.128128727
0.064567820,-12.134218269
0.065039118,-12.136307811
0.065510416,-12.138397352
0.065981714,-12.140486894
0.066453012,-12.142576436
0.066924310,-12.140665978
0.067395608,-12.142755520
0.067866905,-12.140845061
0.068338203,-12.138934603
0.068809501,-12.137024145
0.069280799,-12.135113687
0.069752097,-12.129203228
0.070223395,-12.127292770
0.070694693,-12.121382312
0.071165991,-12.115471854
0.071637289,-12.113561395
0.072108587,-12.107650937
0.072579885,-12.101740479
0.073051183,-12.095830021
0.073522481,-12.089919563
0.073993779,-12.084009104
0.074465077,-12.078098646
0.074936375,-12.072188188
0.075407673,-12.062277730
0.075878971,-12.056367271
0.076350269,-12.050456813
0.076821567,-12.044546355
0.077292865,-12.034635897
0.077764163,-12.028725439
0.078235460,-12.018814980
0.078706758,-12.008904522
0.079178056,-11.998994064
0.079649354,-11.989083606
0.080120652,-11.983173147
0.080591950,-11.969262689
0.081063248,-11.963352231
0.081534546,-11.949441773
0.082005844,-11.943531314
0.082477142,-11.929620856
0.082948440,-11.915710398
0.083419738,-11.905799940
0.083891036,-11.891889482
0.084362334,-11.881979023
0.084833632,-11.868068565
0.085304930,-11.858158107
0.085776228,-11.844247649
0.086247526,-11.830337190
0.086718824,-11.816426732
0.087190122,-11.802516274
0.087661420,-11.788605816
0.088132718,-11.774695358
0.088604015,-11.764784899
0.089075313,-11.750874441
0.089546611,-11.736963983
0.090017909,-11.723053525
0.090489207,-11.709143066
0.090960505,-11.699232608
0.091431803,-11.685322150
0.091903101,-11.671411692
0.092374399,-11.657501233
0.092845697,-11.647590775
0.093316995,-11.637680317
0.093788293,-11.627769859
0.094259591,-11.613859401
0.094730889,-11.603948942
0.095202187,-11.594038484
0.095673485,-11.584128026
0.096144783,-11.578217568
0.096616081,-11.568307109
0.097087379,-11.562396651
0.097558677,-11.552486193
0.098029975,-11.546575735
0.098501273,-11.536665277
0.098972570,-11.530754818
0.099443868,-11.524844360
0.099915166,-11.518933902
0.100386464,-11.513023444
0.100857762,-11.507112985
0.101329060,-11.505202527
0.101800358,-11.499292069
0.102271656,-11.493381611
0.102742954,-11.491471152
0.103214252,-11.485560694
0.103685550,-11.483650236
0.104156848,-11.477739778
0.104628146,-11.475829320
0.105099444,-11.473918861
0.105570742,-11.472008403
0.106042040,-11.466097945
0.106513338,-11.464187487
0.106984636,-11.462277028
0.107455934,-11.460366570
0.107927232,-11.458456112
0.108398530,-11.456545654
0.108869828,-11.454635196
0.109341125,-11.452724737
0.109812423,-11.450814279
0.110283721,-11.448903821
0.110755019,-11.446993363
0.111226317,-11.445082904
0.111697615,-11.443172446
0.112168913,-11.441261988
0.112640211,-11.439351530
0.113111509,-11.437441071
0.113582807,-11.435530613
0.114054105,-11.437620155
0.114525403,-11.435709697
0.114996701,-11.433799239
0.115467999,-11.431888780
0.115939297,-11.429978322
0.116410595,-11.428067864
0.116881893,-11.426157406
0.117353191,-11.428246947
0.117824489,-11.426336489
0.118295787,-11.424426031
0.118767085,-11.422515573
0.119238383,-11.420605115
0.119709680,-11.418694656
0.120180978,-11.420784198
0.120652276,-11.418873740
0.121123574,-11.416963282
0.121594872,-11.415052823
0.122066170,-11.413142365
0.122537468,-11.415231907
0.123008766,-11.413321449
0.123480064,-11.411410990
0.123951362,-11.409500532
0.124422660,-11.407590074
0.124893958,-11.409679616
0.125365256,-11.407769158
0.125836554,-11.405858699
0.126307852,-11.403948241
0.126779150,-11.406037783
0.127250448,-11.404127325
0.127721746,-11.402216866
0.128193044,-11.400306408
0.128664342,-11.402395950
0.129135640,-11.400485492
0.129606938,-11.398575034
0.130078235,-11.400664575
0.130549533,-11.398754117
0.131020831,-11.400843659
0.131492129,-11.398933201
0.131963427,-11.397022742
0.132434725,-11.399112284
0.132906023,-11.397201826
0.133377321,-11.399291368
0.133848619,-11.397380909
0.134319917,-11.399470451
0.134791215,-11.397559993
0.135262513,-11.399649535
0.135733811,-11.401739077
0.136205109,-11.399828618
0.136676407,-11.401918160
0.137147705,-11.404007702
0.137619003,-11.402097244
0.138090301,-11.404186785
0.138561599,-11.402276327
0.139032897,-11.404365869
0.139504195,-11.406455411
0.139975493,-11.404544953
0.140446790,-11.406634494
0.140918088,-11.404724036
0.141389386,-11.406813578
0.141860684,-11.404903120
0.142331982,-11.406992661
0.142803280,-11.405082203
0.143274578,-11.407171745
0.143745876,-11.405261287
0.144217174,-11.407350828
0.144688472,-11.405440370
0.145159770,-11.407529912
0.145631068,-11.405619454
0.146102366,-11.403708996
0.146573664,-11.405798537
0.147044962,-11.403888079
0.147516260,-11.405977621
0.147987558,-11.404067163
0.148458856,-11.402156704
0.148930154,-11.404246246
0.149401452,-11.402335788
0.149872750,-11.400425330
0.150344048,-11.402514872
0.150815345,-11.400604413
0.151286643,-11.402693955
0.151757941,-11.400783497
0.152229239,-11.402873039
0.152700537,-11.400962580
0.153171835,-11.403052122
0.153643133,-11.401141664
0.154114431,-11.403231206
0.154585729,-11.405320747
0.155057027,-11.403410289
0.155528325,-11.405499831
0.155999623,-11.407589373
0.156470921,-11.405678915
0.156942219,-11.407768456
0.157413517,-11.409857998
0.157884815,-11.411947540
0.158356113,-11.414037082
0.158827411,-11.412126623
0.159298709,-11.414216165
0.159770007,-11.416305707
0.160241305,-11.418395249
0.160712603,-11.420484791
0.161183900,-11.422574332
0.161655198,-11.424663874
0.162126496,-11.426753416
0.162597794,-11.428842958
0.163069092,-11.430932499
0.163540390,-11.429022041
0.164011688,-11.431111583
0.164482986,-11.433201125
0.164954284,-11.435290666
0.165425582,-11.437380208
0.165896880,-11.439469750
0.166368178,-11.441559292
0.166839476,-11.443648834
0.167310774,-11.445738375
0.167782072,-11.447827917
0.168253370,-11.449917459
0.168724668,-11.452007001
0.169195966,-11.450096542
0.169667264,-11.452186084
0.170138562,-11.454275626
0.170609860,-11.456365168
0.171081158,-11.458454710
0.171552455,-11.460544251
0.172023753,-11.458633793
0.172495051,-11.460723335
0.172966349,-11.462812877
0.173437647,-11.464902418
0.173908945,-11.462991960
0.174380243,-11.465081502
0.174851541,-11.467171044
0.175322839,-11.465260585
0.175794137,-11.467350127
0.176265435,-11.469439669
0.176736733,-11.467529211
0.177208031,-11.469618753
0.177679329,-11.467708294
0.178150627,-11.469797836
0.178621925,-11.467887378
0.179093223,-11.469976920
0.179564521,-11.468066461
0.180035819,-11.470156003
0.180507117,-11.468245545
0.180978415,-11.466335087
0.181449713,-11.468424629
0.181921010,-11.466514170
0.182392308,-11.464603712
0.182863606,-11.466693254
0.183334904,-11.464782796
0.183806202,-11.466872337
0.184277500,-11.464961879
0.184748798,-11.463051421
0.185220096,-11.465140963
0.185691394,-11.463230504
0.186162692,-11.465320046
0.186633990,-11.463409588
0.187105288,-11.465499130
0.187576586,-11.467588672
0.188047884,-11.465678213
0.188519182,-11.467767755
0.188990480,-11.469857297
0.189461778,-11.467946839
0.189933076,-11.470036380
0.190404374,-11.472125922
0.190875672,-11.474215464
0.191346970,-11.476305006
0.191818268,-11.474394548
0.192289565,-11.476484089
0.192760863,-11.478573631
0.193232161,-11.480663173
0.193703459,-11.482752715
0.194174757,-11.484842256
0.194646055,-11.486931798
0.195117353,-11.485021340
0.195588651,-11.487110882
0.196059949,-11.489200423
0.196531247,-11.491289965
0.197002545,-11.489379507
0.197473843,-11.491469049
0.197945141,-11.493558591
0.198416439,-11.491648132
0.198887737,-11.493737674
0.199359035,-11.491827216
0.199830333,-11.489916758
0.200301631,-11.488006299
0.200772929,-11.486095841
0.201244227,-11.484185383
0.201715525,-11.482274925
0.202186823,-11.480364467
0.202658120,-11.478454008
0.203129418,-11.476543550
0.203600716,-11.470633092
0.204072014,-11.468722634
0.204543312,-11.462812175
0.205014610,-11.456901717
0.205485908,-11.450991259
0.205957206,-11.449080801
0.206428504,-11.443170342
0.206899802,-11.437259884
0.207371100,-11.431349426
0.207842398,-11.425438968
0.208313696,-11.419528510
0.208784994,-11.413618051
0.209256292,-11.403707593
0.209727590,-11.397797135
0.210198888,-11.391886677
0.210670186,-11.381976218
0.211141484,-11.376065760
0.211612782,-11.366155302
0.212084080,-11.360244844
0.212555378,-11.350334386
0.213026675,-11.344423927
0.213497973,-11.334513469
0.213969271,-11.324603011
0.214440569,-11.318692553
0.214911867,-11.308782094
0.215383165,-11.302871636
0.215854463,-11.292961178
0.216325761,-11.287050720
0.216797059,-11.277140261
0.217268357,-11.271229803
0.217739655,-11.261319345
0.218210953,-11.251408887
0.218682251,-11.241498429
0.219153549,-11.235587970
0.219624847,-11.225677512
0.220096145,-11.215767054
0.220567443,-11.209856596
0.221038741,-11.199946137
0.221510039,-11.194035679
0.221981337,-11.184125221
0.222452635,-11.178214763
0.222923933,-11.168304305
0.223395230,-11.162393846
0.223866528,-11.156483388
0.224337826,-11.146572930
0.224809124,-11.140662472
0.225280422,-11.130752013
0.225751720,-11.124841555
0.226223018,-11.118931097
0.226694316,-11.109020639
0.227165614,-11.103110180
0.227636912,-11.097199722
0.228108210,-11.091289264
0.228579508,-11.081378806
0.229050806,-11.075468348
0.229522104,-11.069557889
0.229993402,-11.059647431
0.230464700,-11.053736973
0.230935998,-11.047826515
0.231407296,-11.041916056
0.231878594,-11.032005598
0.232349892,-11.030095140
0.232821190,-11.020184682
0.233292488,-11.014274224
0.233763785,-11.008363765
0.234235083,-10.998453307
0.234706381,-10.992542849
0.235177679,-10.986632391
0.235648977,-10.980721932
0.236120275,-10.970811474
0.236591573,-10.964901016
0.237062871,-10.954990558
0.237534169,-10.949080099
0.238005467,-10.943169641
0.238476765,-10.933259183
0.238948063,-10.927348725
0.239419361,-10.917438267
0.239890659,-10.911527808
0.240361957,-10.901617350
0.240833255,-10.895706892
0.241304553,-10.885796434
0.241775851,-10.879885975
0.242247149,-10.869975517
0.242718447,-10.860065059
0.243189745,-10.854154601
0.243661043,-10.844244143
0.244132340,-10.838333684
0.244603638,-10.828423226
0.245074936,-10.822512768
0.245546234,-10.812602310
0.246017532,-10.806691851
0.246488830,-10.796781393
0.246960128,-10.786870935
0.247431426,-10.780960477
0.247902724,-10.771050018
0.248374022,-10.765139560
0.248845320,-10.755229102
0.249316618,-10.749318644
0.249787916,-10.739408186
0.250259214,-10.733497727
0.250730512,-10.723587269
0.251201810,-10.717676811
0.251673108,-10.707766353
0.252144406,-10.701855894
0.252615704,-10.695945436
0.253087002,-10.686034978
0.253558300,-10.680124520
0.254029598,-10.670214062
0.254500895,-10.664303603
0.254972193,-10.654393145
0.255443491,-10.648482687
0.255914789,-10.642572229
0.256386087,-10.632661770
0.256857385,-10.626751312
0.257328683,-10.616840854
0.257799981,-10.610930396
0.258271279,-10.601019937
0.258742577,-10.595109479
0.259213875,-10.589199021
0.259685173,-10.579288563
0.260156471,-10.573378105
0.260627769,-10.563467646
0.261099067,-10.557557188
0.261570365,-10.547646730
0.262041663,-10.541736272
0.262512961,-10.535825813
0.262984259,-10.525915355
0.263455557,-10.520004897
0.263926855,-10.510094439
0.264398153,-10.504183981
0.264869450,-10.498273522
0.265340748,-10.492363064
0.265812046,-10.482452606
0.266283344,-10.480542148
0.266754642,-10.470631689
0.267225940,-10.464721231
0.267697238,-10.458810773
0.268168536,-10.452900315
0.268639834,-10.450989856
0.269111132,-10.445079398
0.269582430,-10.439168940
0.270053728,-10.433258482
0.270525026,-10.431348024
0.270996324,-10.425437565
0.271467622,-10.419527107
0.271938920,-10.417616649
0.272410218,-10.411706191
0.272881516,-10.409795732
0.273352814,-10.407885274
0.273824112,-10.405974816
0.274295410,-10.404064358
0.274766708,-10.402153900
0.275238005,-10.396243441
0.275709303,-10.394332983
0.276180601,-10.392422525
0.276651899,-10.390512067
0.277123197,-10.388601608
0.277594495,-10.386691150
0.278065793,-10.388780692
0.278537091,-10.382870234
0.279008389,-10.380959775
0.279479687,-10.383049317
0.279950985,-10.381138859
0.280422283,-10.379228401
0.280893581,-10.377317943
0.281364879,-10.375407484
0.281836177,-10.373497026
0.282307475,-10.371586568
0.282778773,-10.365676110
0.283250071,-10.363765651
0.283721369,-10.361855193
0.284192667,-10.359944735
0.284663965,-10.354034277
0.285135263,-10.352123819
0.285606560,-10.346213360
0.286077858,-10.344302902
0.286549156,-10.338392444
0.287020454,-10.336481986
0.287491752,-10.330571527
0.287963050,-10.324661069
0.288434348,-10.318750611
0.288905646,-10.312840153
0.289376944,-10.306929694
0.289848242,-10.301019236
0.290319540,-10.295108778
0.290790838,-10.289198320
0.291262136,-10.283287862
0.291733434,-10.273377403
0.292204732,-10.267466945
0.292676030,-10.261556487
0.293147328,-10.255646029
0.293618626,-10.245735570
0.294089924,-10.239825112
0.294561222,-10.229914654
0.295032520,-10.224004196
0.295503818,-10.218093738
0.295975115,-10.208183279
0.296446413,-10.202272821
0.296917711,-10.192362363
0.297389009,-10.186451905
0.297860307,-10.176541446
0.298331605,-10.170630988
0.298802903,-10.164720530
0.299274201,-10.158810072
0.299745499,-10.148899613
0.300216797,-10.142989155
0.300688095,-10.137078697
0.301159393,-10.127168239
0.301630691,-10.121257781
0.302101989,-10.115347322
0.302573287,-10.109436864
0.303044585,-10.099526406
0.303515883,-10.097615948
0.303987181,-10.087705489
0.304458479,-10.081795031
0.304929777,-10.075884573
0.305401075,-10.069974115
0.305872373,-10.064063657
0.306343670,-10.058153198
0.306814968,-10.052242740
0.307286266,-10.046332282
0.307757564,-10.040421824
0.308228862,-10.034511365
0.308700160,-10.028600907
0.309171458,-10.026690449
0.309642756,-10.020779991
0.310114054,-10.014869532
0.310585352,-10.008959074
0.311056650,-10.007048616
0.311527948,-10.001138158
0.311999246,-9.999227700
0.312470544,-9.993317241
0.312941842,-9.991406783
0.313413140,-9.985496325
0.313884438,-9.983585867
0.314355736,-9.981675408
0.314827034,-9.975764950
0.315298332,-9.973854492
0.315769630,-9.971944034
0.316240928,-9.966033576
0.316712225,-9.964123117
0.317183523,-9.962212659
0.317654821,-9.960302201
0.318126119,-9.958391743
0.318597417,-9.956481284
0.319068715,-9.954570826
0.319540013,-9.952660368
0.320011311,-9.950749910
0.320482609,-9.948839451
0.320953907,-9.946928993
0.321425205,-9.945018535
0.321896503,-9.943108077
0.322367801,-9.941197619
0.322839099,-9.939287160
0.323310397,-9.937376702
0.323781695,-9.935466244
0.324252993,-9.933555786
0.324724291,-9.931645327
0.325195589,-9.929734869
0.325666887,-9.927824411
0.326138185,-9.925913953
0.326609483,-9.924003495
0.327080780,-9.922093036
0.327552078,-9.920182578
0.328023376,-9.918272120
0.328494674,-9.916361662
0.328965972,-9.914451203
0.329437270,-9.912540745
0.329908568,-9.906630287
0.330379866,-9.904719829
0.330851164,-9.902809370
0.331322462,-9.900898912
0.331793760,-9.898988454
0.332265058,-9.897077996
0.332736356,-9.895167538
0.333207654,-9.889257079
0.333678952,-9.887346621
0.334150250,-9.885436163
0.334621548,-9.883525705
0.335092846,-9.881615246
0.335564144,-9.879704788
0.336035442,-9.877794330
0.336506740,-9.875883872
0.336978038,-9.873973414
0.337449335,-9.872062955
0.337920633,-9.870152497
0.338391931,-9.868242039
0.338863229,-9.870331581
0.339334527,-9.868421122
0.339805825,-9.866510664
0.340277123,-9.864600206
0.340748421,-9.862689748
0.341219719,-9.860779289
0.341691017,-9.858868831
0.342162315,-9.856958373
0.342633613,-9.855047915
0.343104911,-9.853137457
0.343576209,-9.851226998
0.344047507,-9.849316540
0.344518805,-9.847406082
0.344990103,-9.845495624
0.345461401,-9.843585165
0.345932699,-9.837674707
0.346403997,-9.835764249
0.346875295,-9.833853791
0.347346593,-9.827943333
0.347817890,-9.826032874
0.348289188,-9.820122416
0.348760486,-9.818211958
0.349231784,-9.812301500
0.349703082,-9.806391041
0.350174380,-9.800480583
0.350645678,-9.798570125
0.351116976,-9.792659667
0.351588274,-9.786749208
0.352059572,-9.780838750
0.352530870,-9.778928292
0.353002168,-9.773017834
0.353473466,-9.767107376
0.353944764,-9.761196917
0.354416062,-9.755286459
0.354887360,-9.749376001
0.355358658,-9.743465543
0.355829956,-9.741555084
0.356301254,-9.735644626
0.356772552,-9.733734168
0.357243850,-9.727823710
0.357715148,-9.721913252
0.358186445,-9.720002793
0.358657743,-9.714092335
0.359129041,-9.712181877
0.359600339,-9.706271419
0.360071637,-9.704360960
0.360542935,-9.702450502
0.361014233,-9.696540044
0.361485531,-9.694629586
0.361956829,-9.692719127
0.362428127,-9.690808669
0.362899425,-9.688898211
0.363370723,-9.686987753
