x (mm),altura (µm)
0.000000000,-1.381267421
0.000496845,-1.385336168
0.000993690,-1.393404915
0.001490535,-1.393473662
0.001987380,-1.405542410
0.002484225,-1.409611157
0.002981070,-1.417679904
0.003477915,-1.421748652
0.003974760,-1.429817399
0.004471605,-1.437886146
0.004968450,-1.445954894
0.005465295,-1.454023641
0.005962140,-1.462092388
0.006458985,-1.470161135
0.006955830,-1.478229883
0.007452676,-1.490298630
0.007949521,-1.494367377
0.008446366,-1.506436125
0.008943211,-1.514504872
0.009440056,-1.526573619
0.009936901,-1.530642367
0.010433746,-1.542711114
0.010930591,-1.550779861
0.011427436,-1.558848609
0.011924281,-1.566917356
0.012421126,-1.574986103
0.012917971,-1.583054850
0.013414816,-1.595123598
0.013911661,-1.599192345
0.014408506,-1.611261092
0.014905351,-1.619329840
0.015402196,-1.627398587
0.015899041,-1.635467334
0.016395886,-1.639536082
0.016892731,-1.647604829
0.017389576,-1.651673576
0.017886421,-1.659742323
0.018383266,-1.663811071
0.018880111,-1.671879818
0.019376956,-1.671948565
0.019873801,-1.676017313
0.020370646,-1.676086060
0.020867491,-1.680154807
0.021364336,-1.680223555
0.021861181,-1.680292302
0.022358027,-1.684361049
0.022854872,-1.680429797
0.023351717,-1.680498544
0.023848562,-1.676567291
0.024345407,-1.672636038
0.024842252,-1.668704786
0.025339097,-1.664773533
0.025835942,-1.656842280
0.026332787,-1.652911028
0.026829632,-1.640979775
0.027326477,-1.637048522
0.027823322,-1.629117270
0.028320167,-1.617186017
0.028817012,-1.609254764
0.029313857,-1.597323512
0.029810702,-1.585392259
0.030307547,-1.573461006
0.030804392,-1.561529753
0.031301237,-1.545598501
0.031798082,-1.537667248
0.032294927,-1.521735995
0.032791772,-1.509804743
0.033288617,-1.497873490
0.033785462,-1.481942237
0.034282307,-1.470010985
0.034779152,-1.454079732
0.035275997,-1.442148479
0.035772842,-1.426217226
0.036269687,-1.418285974
0.036766533,-1.398354721
0.037263378,-1.390423468
0.037760223,-1.374492216
0.038257068,-1.366560963
0.038753913,-1.354629710
0.039250758,-1.338698458
0.039747603,-1.330767205
0.040244448,-1.314835952
0.040741293,-1.310904700
0.041238138,-1.294973447
0.041734983,-1.291042194
0.042231828,-1.275110941
0.042728673,-1.271179689
0.043225518,-1.263248436
0.043722363,-1.251317183
0.044219208,-1.247385931
0.044716053,-1.235454678
0.045212898,-1.231523425
0.045709743,-1.223592173
0.046206588,-1.219660920
0.046703433,-1.211729667
0.047200278,-1.207798414
0.047697123,-1.203867162
0.048193968,-1.195935909
0.048690813,-1.196004656
0.049187658,-1.188073404
0.049684503,-1.188142151
0.050181348,-1.180210898
0.050678193,-1.180279646
0.051175039,-1.176348393
0.051671884,-1.176417140
0.052168729,-1.176485888
0.052665574,-1.172554635
0.053162419,-1.172623382
0.053659264,-1.172692129
0.054156109,-1.172760877
0.054652954,-1.172829624
0.055149799,-1.172898371
0.055646644,-1.172967119
0.056143489,-1.177035866
0.056640334,-1.177104613
0.057137179,-1.177173361
0.057634024,-1.181242108
0.058130869,-1.181310855
0.058627714,-1.185379602
0.059124559,-1.185448350
0.059621404,-1.189517097
0.060118249,-1.189585844
0.060615094,-1.193654592
0.061111939,-1.197723339
0.061608784,-1.201792086
0.062105629,-1.205860834
0.062602474,-1.205929581
0.063099319,-1.209998328
0.063596164,-1.214067076
0.064093009,-1.218135823
0.064589854,-1.222204570
0.065086699,-1.222273317
0.065583544,-1.226342065
0.066080390,-1.230410812
0.066577235,-1.234479559
0.067074080,-1.234548307
0.067570925,-1.238617054
0.068067770,-1.242685801
0.068564615,-1.246754549
0.069061460,-1.250823296
0.069558305,-1.250892043
0.070055150,-1.254960790
0.070551995,-1.255029538
0.071048840,-1.259098285
0.071545685,-1.263167032
0.072042530,-1.263235780
0.072539375,-1.267304527
0.073036220,-1.267373274
0.073533065,-1.271442022
0.074029910,-1.271510769
0.074526755,-1.275579516
0.075023600,-1.279648264
0.075520445,-1.279717011
0.076017290,-1.283785758
0.076514135,-1.283854505
0.077010980,-1.283923253
0.077507825,-1.283992000
0.078004670,-1.288060747
0.078501515,-1.288129495
0.078998360,-1.288198242
0.079495205,-1.292266989
0.079992050,-1.288335737
0.080488896,-1.292404484
0.080985741,-1.288473231
0.081482586,-1.292541979
0.081979431,-1.292610726
0.082476276,-1.288679473
0.082973121,-1.288748220
0.083469966,-1.288816968
0.083966811,-1.288885715
0.084463656,-1.284954462
0.084960501,-1.285023210
0.085457346,-1.285091957
0.085954191,-1.281160704
0.086451036,-1.281229452
0.086947881,-1.277298199
0.087444726,-1.277366946
0.087941571,-1.277435693
0.088438416,-1.269504441
0.088935261,-1.269573188
0.089432106,-1.265641935
0.089928951,-1.265710683
0.090425796,-1.261779430
0.090922641,-1.261848177
0.091419486,-1.261916925
0.091916331,-1.257985672
0.092413176,-1.258054419
0.092910021,-1.254123167
0.093406866,-1.254191914
0.093903711,-1.254260661
0.094400556,-1.250329408
0.094897402,-1.250398156
0.095394247,-1.246466903
0.095891092,-1.250535650
0.096387937,-1.246604398
0.096884782,-1.250673145
0.097381627,-1.250741892
0.097878472,-1.250810640
0.098375317,-1.254879387
0.098872162,-1.250948134
0.099369007,-1.255016881
0.099865852,-1.259085629
0.100362697,-1.259154376
0.100859542,-1.259223123
0.101356387,-1.259291871
0.101853232,-1.263360618
0.102350077,-1.267429365
0.102846922,-1.267498113
0.103343767,-1.271566860
0.103840612,-1.271635607
0.104337457,-1.275704355
0.104834302,-1.279773102
0.105331147,-1.279841849
0.105827992,-1.283910596
0.106324837,-1.283979344
0.106821682,-1.288048091
0.107318527,-1.288116838
0.107815372,-1.292185586
0.108312217,-1.296254333
0.108809062,-1.296323080
0.109305907,-1.300391828
0.109802753,-1.300460575
0.110299598,-1.304529322
0.110796443,-1.308598069
0.111293288,-1.312666817
0.111790133,-1.316735564
0.112286978,-1.316804311
0.112783823,-1.320873059
0.113280668,-1.324941806
0.113777513,-1.325010553
0.114274358,-1.333079301
0.114771203,-1.333148048
0.115268048,-1.337216795
0.115764893,-1.341285543
0.116261738,-1.345354290
0.116758583,-1.349423037
0.117255428,-1.349491784
0.117752273,-1.353560532
0.118249118,-1.357629279
0.118745963,-1.357698026
0.119242808,-1.365766774
0.119739653,-1.365835521
0.120236498,-1.369904268
0.120733343,-1.373973016
0.121230188,-1.374041763
0.121727033,-1.378110510
0.122223878,-1.378179258
0.122720723,-1.382248005
0.123217568,-1.386316752
0.123714413,-1.386385499
0.124211259,-1.386454247
0.124708104,-1.386522994
0.125204949,-1.390591741
0.125701794,-1.390660489
0.126198639,-1.390729236
0.126695484,-1.390797983
0.127192329,-1.390866731
0.127689174,-1.390935478
0.128186019,-1.395004225
0.128682864,-1.391072972
0.129179709,-1.395141720
0.129676554,-1.391210467
0.130173399,-1.391279214
0.130670244,-1.395347962
0.131167089,-1.391416709
0.131663934,-1.395485456
0.132160779,-1.395554204
0.132657624,-1.395622951
0.133154469,-1.395691698
0.133651314,-1.395760446
0.134148159,-1.395829193
0.134645004,-1.399897940
0.135141849,-1.395966687
0.135638694,-1.400035435
0.136135539,-1.400104182
0.136632384,-1.400172929
0.137129229,-1.404241677
0.137626074,-1.404310424
0.138122919,-1.408379171
0.138619764,-1.408447919
0.139116610,-1.412516666
0.139613455,-1.416585413
0.140110300,-1.416654160
0.140607145,-1.420722908
0.141103990,-1.424791655
0.141600835,-1.420860402
0.142097680,-1.424929150
0.142594525,-1.424997897
0.143091370,-1.429066644
0.143588215,-1.433135392
0.144085060,-1.429204139
0.144581905,-1.433272886
0.145078750,-1.433341634
0.145575595,-1.433410381
0.146072440,-1.437479128
0.146569285,-1.433547875
0.147066130,-1.433616623
0.147562975,-1.437685370
0.148059820,-1.433754117
0.148556665,-1.433822865
0.149053510,-1.425891612
0.149550355,-1.425960359
0.150047200,-1.426029107
0.150544045,-1.418097854
0.151040890,-1.418166601
0.151537735,-1.414235348
0.152034580,-1.406304096
0.152531425,-1.402372843
0.153028270,-1.398441590
0.153525116,-1.394510338
0.154021961,-1.390579085
0.154518806,-1.382647832
0.155015651,-1.378716580
0.155512496,-1.374785327
0.156009341,-1.366854074
0.156506186,-1.362922822
0.157003031,-1.350991569
0.157499876,-1.347060316
0.157996721,-1.343129063
0.158493566,-1.335197811
0.158990411,-1.331266558
0.159487256,-1.327335305
0.159984101,-1.319404053
0.160480946,-1.311472800
0.160977791,-1.307541547
0.161474636,-1.303610295
0.161971481,-1.299679042
0.162468326,-1.291747789
0.162965171,-1.291816536
0.163462016,-1.287885284
0.163958861,-1.283954031
0.164455706,-1.280022778
0.164952551,-1.276091526
0.165449396,-1.276160273
0.165946241,-1.272229020
0.166443086,-1.268297768
0.166939931,-1.268366515
0.167436776,-1.268435262
0.167933622,-1.264504010
0.168430467,-1.268572757
0.168927312,-1.264641504
0.169424157,-1.264710251
0.169921002,-1.268778999
0.170417847,-1.264847746
0.170914692,-1.268916493
0.171411537,-1.268985241
0.171908382,-1.269053988
0.172405227,-1.273122735
0.172902072,-1.273191483
0.173398917,-1.273260230
0.173895762,-1.277328977
0.174392607,-1.273397725
0.174889452,-1.277466472
0.175386297,-1.281535219
0.175883142,-1.277603966
0.176379987,-1.281672714
0.176876832,-1.285741461
0.177373677,-1.281810208
0.177870522,-1.285878956
0.178367367,-1.289947703
0.178864212,-1.286016450
0.179361057,-1.290085198
0.179857902,-1.286153945
0.180354747,-1.290222692
0.180851592,-1.290291439
0.181348437,-1.290360187
0.181845282,-1.290428934
0.182342127,-1.294497681
0.182838973,-1.290566429
0.183335818,-1.294635176
0.183832663,-1.294703923
0.184329508,-1.290772671
0.184826353,-1.294841418
0.185323198,-1.294910165
0.185820043,-1.290978913
0.186316888,-1.295047660
0.186813733,-1.291116407
0.187310578,-1.291185154
0.187807423,-1.295253902
0.188304268,-1.291322649
0.188801113,-1.295391396
0.189297958,-1.295460144
0.189794803,-1.295528891
0.190291648,-1.295597638
0.190788493,-1.295666386
0.191285338,-1.295735133
0.191782183,-1.295803880
0.192279028,-1.299872627
0.192775873,-1.295941375
0.193272718,-1.300010122
0.193769563,-1.300078869
0.194266408,-1.300147617
0.194763253,-1.300216364
0.195260098,-1.300285111
0.195756943,-1.300353859
0.196253788,-1.304422606
0.196750633,-1.300491353
0.197247479,-1.300560101
0.197744324,-1.304628848
0.198241169,-1.300697595
0.198738014,-1.300766342
0.199234859,-1.300835090
0.199731704,-1.296903837
0.200228549,-1.296972584
0.200725394,-1.297041332
0.201222239,-1.293110079
0.201719084,-1.293178826
0.202215929,-1.293247574
0.202712774,-1.285316321
0.203209619,-1.281385068
0.203706464,-1.281453815
0.204203309,-1.269522563
0.204700154,-1.269591310
0.205196999,-1.261660057
0.205693844,-1.253728805
0.206190689,-1.249797552
0.206687534,-1.241866299
0.207184379,-1.233935047
0.207681224,-1.226003794
0.208178069,-1.218072541
0.208674914,-1.206141289
0.209171759,-1.202210036
0.209668604,-1.190278783
0.210165449,-1.182347530
0.210662294,-1.174416278
0.211159139,-1.162485025
0.211655984,-1.154553772
0.212152830,-1.142622520
0.212649675,-1.134691267
0.213146520,-1.122760014
0.213643365,-1.118828762
0.214140210,-1.106897509
0.214637055,-1.098966256
0.215133900,-1.091035003
0.215630745,-1.083103751
0.216127590,-1.075172498
0.216624435,-1.071241245
0.217121280,-1.063309993
0.217618125,-1.059378740
0.218114970,-1.055447487
0.218611815,-1.047516235
0.219108660,-1.043584982
0.219605505,-1.043653729
0.220102350,-1.035722477
0.220599195,-1.035791224
0.221096040,-1.035859971
0.221592885,-1.031928718
0.222089730,-1.031997466
0.222586575,-1.036066213
0.223083420,-1.032134960
0.223580265,-1.036203708
0.224077110,-1.036272455
0.224573955,-1.036341202
0.225070800,-1.040409950
0.225567645,-1.044478697
0.226064490,-1.044547444
0.226561336,-1.048616192
0.227058181,-1.052684939
0.227555026,-1.052753686
0.228051871,-1.056822433
0.228548716,-1.060891181
0.229045561,-1.064959928
0.229542406,-1.069028675
0.230039251,-1.077097423
0.230536096,-1.077166170
0.231032941,-1.085234917
0.231529786,-1.089303665
0.232026631,-1.093372412
0.232523476,-1.097441159
0.233020321,-1.105509906
0.233517166,-1.109578654
0.234014011,-1.117647401
0.234510856,-1.121716148
0.235007701,-1.125784896
0.235504546,-1.133853643
0.236001391,-1.137922390
0.236498236,-1.141991138
0.236995081,-1.150059885
0.237491926,-1.158128632
0.237988771,-1.158197380
0.238485616,-1.166266127
0.238982461,-1.174334874
0.239479306,-1.174403621
0.239976151,-1.182472369
0.240472996,-1.186541116
0.240969842,-1.186609863
0.241466687,-1.190678611
0.241963532,-1.194747358
0.242460377,-1.198816105
0.242957222,-1.198884853
0.243454067,-1.198953600
0.243950912,-1.203022347
0.244447757,-1.199091094
0.244944602,-1.199159842
0.245441447,-1.195228589
0.245938292,-1.191297336
0.246435137,-1.187366084
0.246931982,-1.179434831
0.247428827,-1.171503578
0.247925672,-1.167572326
0.248422517,-1.159641073
0.248919362,-1.147709820
0.249416207,-1.139778568
0.249913052,-1.131847315
0.250409897,-1.119916062
0.250906742,-1.107984809
0.251403587,-1.092053557
0.251900432,-1.080122304
0.252397277,-1.068191051
0.252894122,-1.056259799
0.253390967,-1.040328546
0.253887812,-1.028397293
0.254384657,-1.012466041
0.254881502,-1.000534788
0.255378347,-0.980603535
0.255875193,-0.968672282
0.256372038,-0.956741030
0.256868883,-0.936809777
0.257365728,-0.928878524
0.257862573,-0.912947272
0.258359418,-0.901016019
0.258856263,-0.889084766
0.259353108,-0.877153514
0.259849953,-0.865222261
0.260346798,-0.853291008
0.260843643,-0.845359756
0.261340488,-0.837428503
0.261837333,-0.829497250
0.262334178,-0.821565997
0.262831023,-0.817634745
0.263327868,-0.805703492
0.263824713,-0.801772239
0.264321558,-0.797840987
0.264818403,-0.789909734
0.265315248,-0.789978481
0.265812093,-0.786047229
0.266308938,-0.782115976
0.266805783,-0.782184723
0.267302628,-0.782253470
0.267799473,-0.778322218
0.268296318,-0.778390965
0.268793163,-0.778459712
0.269290008,-0.778528460
0.269786853,-0.774597207
0.270283699,-0.778665954
0.270780544,-0.778734702
0.271277389,-0.778803449
0.271774234,-0.778872196
0.272271079,-0.782940944
0.272767924,-0.779009691
0.273264769,-0.783078438
0.273761614,-0.783147185
0.274258459,-0.787215933
0.274755304,-0.787284680
0.275252149,-0.787353427
0.275748994,-0.791422175
0.276245839,-0.791490922
0.276742684,-0.795559669
0.277239529,-0.795628417
0.277736374,-0.795697164
0.278233219,-0.799765911
0.278730064,-0.803834659
0.279226909,-0.807903406
0.279723754,-0.807972153
0.280220599,-0.812040900
0.280717444,-0.816109648
0.281214289,-0.816178395
0.281711134,-0.820247142
0.282207979,-0.824315890
0.282704824,-0.824384637
0.283201669,-0.828453384
0.283698514,-0.832522132
0.284195359,-0.836590879
0.284692205,-0.836659626
0.285189050,-0.844728373
0.285685895,-0.848797121
0.286182740,-0.848865868
0.286679585,-0.852934615
0.287176430,-0.857003363
0.287673275,-0.861072110
0.288170120,-0.865140857
0.288666965,-0.869209605
0.289163810,-0.873278352
0.289660655,-0.873347099
0.290157500,-0.877415847
0.290654345,-0.881484594
0.291151190,-0.881553341
0.291648035,-0.881622088
0.292144880,-0.885690836
0.292641725,-0.885759583
0.293138570,-0.881828330
0.293635415,-0.881897078
0.294132260,-0.881965825
0.294629105,-0.878034572
0.295125950,-0.878103320
0.295622795,-0.874172067
0.296119640,-0.870240814
0.296616485,-0.862309561
0.297113330,-0.858378309
0.297610175,-0.854447056
0.298107020,-0.842515803
0.298603865,-0.834584551
0.299100710,-0.826653298
0.299597556,-0.814722045
0.300094401,-0.802790793
0.300591246,-0.790859540
0.301088091,-0.778928287
0.301584936,-0.762997035
0.302081781,-0.751065782
0.302578626,-0.735134529
0.303075471,-0.719203276
0.303572316,-0.703272024
0.304069161,-0.683340771
0.304566006,-0.671409518
0.305062851,-0.647478266
0.305559696,-0.631547013
0.306056541,-0.615615760
0.306553386,-0.599684508
0.307050231,-0.575753255
0.307547076,-0.555822002
0.308043921,-0.543890749
0.308540766,-0.519959497
0.309037611,-0.504028244
0.309534456,-0.488096991
0.310031301,-0.472165739
0.310528146,-0.452234486
0.311024991,-0.440303233
0.311521836,-0.424371981
0.312018681,-0.404440728
0.312515526,-0.392509475
0.313012371,-0.380578223
0.313509216,-0.368646970
0.314006062,-0.352715717
0.314502907,-0.344784464
0.314999752,-0.336853212
0.315496597,-0.324921959
0.315993442,-0.316990706
0.316490287,-0.309059454
0.316987132,-0.301128201
0.317483977,-0.293196948
0.317980822,-0.289265696
0.318477667,-0.281334443
0.318974512,-0.281403190
0.319471357,-0.273471937
0.319968202,-0.273540685
0.320465047,-0.269609432
0.320961892,-0.265678179
0.321458737,-0.265746927
0.321955582,-0.261815674
0.322452427,-0.265884421
0.322949272,-0.261953169
0.323446117,-0.262021916
0.323942962,-0.262090663
0.324439807,-0.262159411
0.324936652,-0.262228158
0.325433497,-0.262296905
0.325930342,-0.266365652
0.326427187,-0.262434400
0.326924032,-0.266503147
0.327420877,-0.266571894
0.327917722,-0.270640642
0.328414567,-0.270709389
0.328911413,-0.270778136
0.329408258,-0.274846884
0.329905103,-0.274915631
0.330401948,-0.274984378
0.330898793,-0.275053126
0.331395638,-0.279121873
0.331892483,-0.279190620
0.332389328,-0.279259367
0.332886173,-0.283328115
0.333383018,-0.283396862
0.333879863,-0.279465609
0.334376708,-0.283534357
0.334873553,-0.283603104
0.335370398,-0.287671851
0.335867243,-0.283740599
0.336364088,-0.283809346
0.336860933,-0.287878093
0.337357778,-0.287946840
0.337854623,-0.284015588
0.338351468,-0.288084335
0.338848313,-0.288153082
0.339345158,-0.292221830
0.339842003,-0.288290577
0.340338848,-0.288359324
0.340835693,-0.292428072
0.341332538,-0.288496819
0.341829383,-0.288565566
0.342326228,-0.292634314
0.342823073,-0.292703061
0.343319919,-0.288771808
0.343816764,-0.292840555
0.344313609,-0.292909303
0.344810454,-0.296978050
0.345307299,-0.293046797
0.345804144,-0.297115545
0.346300989,-0.301184292
0.346797834,-0.301253039
0.347294679,-0.301321787
0.347791524,-0.301390534
0.348288369,-0.305459281
0.348785214,-0.309528028
0.349282059,-0.309596776
0.349778904,-0.309665523
0.350275749,-0.313734270
0.350772594,-0.317803018
0.351269439,-0.317871765
0.351766284,-0.321940512
0.352263129,-0.326009260
0.352759974,-0.326078007
0.353256819,-0.326146754
0.353753664,-0.330215502
0.354250509,-0.334284249
0.354747354,-0.338352996
0.355244199,-0.338421743
0.355741044,-0.338490491
0.356237889,-0.342559238
0.356734734,-0.342627985
0.357231579,-0.346696733
0.357728425,-0.346765480
0.358225270,-0.350834227
0.358722115,-0.350902975
0.359218960,-0.350971722
0.359715805,-0.355040469
0.360212650,-0.355109216
0.360709495,-0.355177964
0.361206340,-0.355246711
0.361703185,-0.359315458
0.362200030,-0.359384206
0.362696875,-0.359452953
0.363193720,-0.359521700
0.363690565,-0.359590448
0.364187410,-0.359659195
0.364684255,-0.355727942
0.365181100,-0.359796690
0.365677945,-0.359865437
0.366174790,-0.359934184
0.366671635,-0.356002931
0.367168480,-0.356071679
0.367665325,-0.352140426
0.368162170,-0.352209173
0.368659015,-0.352277921
0.369155860,-0.348346668
0.369652705,-0.344415415
0.370149550,-0.344484163
0.370646395,-0.340552910
0.371143240,-0.336621657
0.371640085,-0.332690404
0.372136930,-0.328759152
0.372633776,-0.324827899
0.373130621,-0.316896646
0.373627466,-0.308965394
0.374124311,-0.305034141
0.374621156,-0.301102888
0.375118001,-0.293171636
0.375614846,-0.285240383
0.376111691,-0.281309130
0.376608536,-0.273377878
0.377105381,-0.261446625
0.377602226,-0.253515372
0.378099071,-0.245584119
0.378595916,-0.237652867
0.379092761,-0.225721614
0.379589606,-0.217790361
0.380086451,-0.209859109
0.380583296,-0.197927856
0.381080141,-0.189996603
0.381576986,-0.178065351
0.382073831,-0.174134098
0.382570676,-0.162202845
0.383067521,-0.154271593
0.383564366,-0.142340340
0.384061211,-0.138409087
0.384558056,-0.130477834
0.385054901,-0.122546582
0.385551746,-0.110615329
0.386048591,-0.106684076
0.386545436,-0.098752824
0.387042282,-0.094821571
0.387539127,-0.086890318
0.388035972,-0.078959066
0.388532817,-0.075027813
0.389029662,-0.071096560
0.389526507,-0.063165307
0.390023352,-0.059234055
0.390520197,-0.055302802
0.391017042,-0.055371549
0.391513887,-0.051440297
0.392010732,-0.043509044
0.392507577,-0.039577791
0.393004422,-0.039646539
0.393501267,-0.035715286
0.393998112,-0.031784033
0.394494957,-0.031852781
0.394991802,-0.027921528
0.395488647,-0.027990275
0.395985492,-0.024059022
0.396482337,-0.024127770
