x (mm),altura (µm)
0.000000000,-0.216076929
0.000496845,-0.221481120
0.000993690,-0.226891546
0.001490535,-0.228308216
0.001987380,-0.237731141
0.002484225,-0.243160328
0.002981070,-0.248595787
0.003477915,-0.254037528
0.003974760,-0.259485558
0.004471605,-0.268939888
0.004968450,-0.274400525
0.005465295,-0.283867479
0.005962140,-0.289340758
0.006458985,-0.298820370
0.006955830,-0.304306326
0.007452676,-0.313798629
0.007949521,-0.319297292
0.008446366,-0.328802323
0.008943211,-0.338313727
0.009440056,-0.347831516
0.009936901,-0.353355695
0.010433746,-0.362886271
0.010930591,-0.372423257
0.011427436,-0.377966656
0.011924281,-0.387516478
0.012421126,-0.393072730
0.012917971,-0.402635419
0.013414816,-0.412204554
0.013911661,-0.417780142
0.014408506,-0.427362191
0.014905351,-0.432950706
0.015402196,-0.442545696
0.015899041,-0.448147170
0.016395886,-0.453755134
0.016892731,-0.459369594
0.017389576,-0.464990559
0.017886421,-0.470618035
0.018383266,-0.476252029
0.018880111,-0.481892551
0.019376956,-0.483539603
0.019873801,-0.485193196
0.020370646,-0.486853334
0.020867491,-0.488520027
0.021364336,-0.490193278
0.021861181,-0.487873098
0.022358027,-0.489559492
0.022854872,-0.487252465
0.023351717,-0.484952026
0.023848562,-0.482658181
0.024345407,-0.476370937
0.024842252,-0.474090301
0.025339097,-0.467816279
0.025835942,-0.461548877
0.026332787,-0.455288104
0.026829632,-0.445033963
0.027326477,-0.438786465
0.027823322,-0.428545611
0.028320167,-0.418311412
0.028817012,-0.408083872
0.029313857,-0.397863001
0.029810702,-0.383648802
0.030307547,-0.373441281
0.030804392,-0.359240446
0.031301237,-0.345046304
0.031798082,-0.334858860
0.032294927,-0.320678118
0.032791772,-0.306504088
0.033288617,-0.292336774
0.033785462,-0.278176183
0.034282307,-0.264022320
0.034779152,-0.249875191
0.035275997,-0.235734804
0.035772842,-0.221601160
0.036269687,-0.211474268
0.036766533,-0.193354134
0.037263378,-0.183240762
0.037760223,-0.169134159
0.038257068,-0.159034329
0.038753913,-0.144941279
0.039250758,-0.130855012
0.039747603,-0.120775538
0.040244448,-0.106702858
0.040741293,-0.100636979
0.041238138,-0.086577904
0.041734983,-0.080525643
0.042231828,-0.066480194
0.042728673,-0.060441569
0.043225518,-0.050409769
0.043722363,-0.040384800
0.044219208,-0.034366668
0.044716053,-0.024355377
0.045212898,-0.018350932
0.045709743,-0.012353337
0.046206588,-0.006362597
0.046703433,-0.000378716
0.047200278,0.005598297
0.047697123,0.011568440
0.048193968,0.017531710
0.048690813,0.019488100
0.049187658,0.025437610
0.049684503,0.027380229
0.050181348,0.033315958
0.050678193,0.035244789
0.051175039,0.037166719
0.051671884,0.039081745
0.052168729,0.040989860
0.052665574,0.042891062
0.053162419,0.044785345
0.053659264,0.042672706
0.054156109,0.044553142
0.054652954,0.042426647
0.055149799,0.044293218
0.055646644,0.042152853
0.056143489,0.040005544
0.056640334,0.041851289
0.057137179,0.039690084
0.057634024,0.037521927
0.058130869,0.035346813
0.058627714,0.033164735
0.059124559,0.030975694
0.059621404,0.028779684
0.060118249,0.026576701
0.060615094,0.024366741
0.061111939,0.022149802
0.061608784,0.015925878
0.062105629,0.013694967
0.062602474,0.011457067
0.063099319,0.009212169
0.063596164,0.002960273
0.064093009,0.000701376
0.064589854,-0.001564527
0.065086699,-0.003837440
0.065583544,-0.006117368
0.066080390,-0.012404313
0.066577235,-0.014698278
0.067074080,-0.016999268
0.067570925,-0.019307285
0.068067770,-0.021622335
0.068564615,-0.027944422
0.069061460,-0.030273547
0.069558305,-0.032609715
0.070055150,-0.034952929
0.070551995,-0.037303195
0.071048840,-0.039660515
0.071545685,-0.042024891
0.072042530,-0.044396329
0.072539375,-0.046774831
0.073036220,-0.049160403
0.073533065,-0.051553048
0.074029910,-0.053952767
0.074526755,-0.056359566
0.075023600,-0.058773448
0.075520445,-0.061194415
0.076017290,-0.063622473
0.076514135,-0.066057624
0.077010980,-0.064499872
0.077507825,-0.066949220
0.078004670,-0.069405673
0.078501515,-0.067869232
0.078998360,-0.070339902
0.079495205,-0.072817686
0.079992050,-0.071302587
0.080488896,-0.073794611
0.080985741,-0.072293758
0.081482586,-0.074800033
0.081979431,-0.073313440
0.082476276,-0.071833981
0.082973121,-0.070361661
0.083469966,-0.072896481
0.083966811,-0.071438447
0.084463656,-0.069987559
0.084960501,-0.068543824
0.085457346,-0.067107243
0.085954191,-0.065677819
0.086451036,-0.064255556
0.086947881,-0.062840455
0.087444726,-0.061432522
0.087941571,-0.060031757
0.088438416,-0.054638167
0.088935261,-0.053251751
0.089432106,-0.051872515
0.089928951,-0.050500459
0.090425796,-0.049135588
0.090922641,-0.047777906
0.091419486,-0.046427413
0.091916331,-0.045084113
0.092413176,-0.043748009
0.092910021,-0.042419103
0.093406866,-0.041097399
0.093903711,-0.039782899
0.094400556,-0.038475603
0.094897402,-0.037175518
0.095394247,-0.035882646
0.095891092,-0.038596987
0.096387937,-0.037318546
0.096884782,-0.040047324
0.097381627,-0.038783324
0.097878472,-0.041526551
0.098375317,-0.044277004
0.098872162,-0.043034687
0.099369007,-0.045799603
0.099865852,-0.048571753
0.100362697,-0.051351141
0.100859542,-0.050137769
0.101356387,-0.052931640
0.101853232,-0.055732756
0.102350077,-0.058541120
0.102846922,-0.061356735
0.103343767,-0.064179602
0.103840612,-0.067009722
0.104337457,-0.069847100
0.104834302,-0.072691738
0.105331147,-0.075543636
0.105827992,-0.078402799
0.106324837,-0.081269227
0.106821682,-0.084142924
0.107318527,-0.087023891
0.107815372,-0.089912132
0.108312217,-0.092807646
0.108809062,-0.095710437
0.109305907,-0.098620508
0.109802753,-0.101537860
0.110299598,-0.104462494
0.110796443,-0.107394415
0.111293288,-0.114333623
0.111790133,-0.117280119
0.112286978,-0.120233906
0.112783823,-0.123194985
0.113280668,-0.126163362
0.113777513,-0.129139035
0.114274358,-0.136122009
0.114771203,-0.139112283
0.115268048,-0.142109858
0.115764893,-0.145114740
0.116261738,-0.152126931
0.116758583,-0.155146428
0.117255428,-0.158173237
0.117752273,-0.161207358
0.118249118,-0.164248795
0.118745963,-0.167297548
0.119242808,-0.174353618
0.119739653,-0.177417009
0.120236498,-0.180487722
0.120733343,-0.183565758
0.121230188,-0.186651120
0.121727033,-0.189743810
0.122223878,-0.192843829
0.122720723,-0.195951178
0.123217568,-0.199065859
0.123714413,-0.202187874
0.124211259,-0.201317222
0.124708104,-0.204453908
0.125204949,-0.207597931
0.125701794,-0.206749293
0.126198639,-0.209907995
0.126695484,-0.209074039
0.127192329,-0.212247426
0.127689174,-0.211428154
0.128186019,-0.214616228
0.128682864,-0.213811647
0.129179709,-0.217014413
0.129676554,-0.216224524
0.130173399,-0.215441983
0.130670244,-0.218666790
0.131167089,-0.217898945
0.131663934,-0.221138449
0.132160779,-0.220385301
0.132657624,-0.223639504
0.133154469,-0.222901055
0.133651314,-0.226169958
0.134148159,-0.225446209
0.134645004,-0.228729811
0.135141849,-0.228020764
0.135638694,-0.231319066
0.136135539,-0.234624718
0.136632384,-0.233937720
0.137129229,-0.237258071
0.137626074,-0.240585771
0.138122919,-0.243920820
0.138619764,-0.247263218
0.139116610,-0.250612963
0.139613455,-0.253970060
0.140110300,-0.257334503
0.140607145,-0.260706294
0.141103990,-0.264085430
0.141600835,-0.263471915
0.142097680,-0.266865744
0.142594525,-0.270266920
0.143091370,-0.273675441
0.143588215,-0.277091305
0.144085060,-0.276514512
0.144581905,-0.279945061
0.145078750,-0.283382952
0.145575595,-0.282828183
0.146072440,-0.286280756
0.146569285,-0.285740666
0.147066130,-0.285207912
0.147562975,-0.288682495
0.148059820,-0.288164412
0.148556665,-0.287653660
0.149053510,-0.283150237
0.149550355,-0.282654145
0.150047200,-0.282165378
0.150544045,-0.277683939
0.151040890,-0.277209821
0.151537735,-0.272743023
0.152034580,-0.268283545
0.152531425,-0.263831382
0.153028270,-0.263386532
0.153525116,-0.258948990
0.154021961,-0.254518756
0.154518806,-0.250095827
0.155015651,-0.245680200
0.155512496,-0.241271871
0.156009341,-0.236870835
0.156506186,-0.232477093
0.157003031,-0.224090638
0.157499876,-0.219711468
0.157996721,-0.215339580
0.158493566,-0.210974969
0.158990411,-0.206617630
0.159487256,-0.202267561
0.159984101,-0.197924760
0.160480946,-0.189589221
0.160977791,-0.189260939
0.161474636,-0.184939912
0.161971481,-0.180626136
0.162468326,-0.176319604
0.162965171,-0.176020314
0.163462016,-0.171728262
0.163958861,-0.171443444
0.164455706,-0.167165854
0.164952551,-0.166895486
0.165449396,-0.166632339
0.165946241,-0.162376407
0.166443086,-0.162127683
0.166939931,-0.161886164
0.167436776,-0.161651846
0.167933622,-0.161424721
0.168430467,-0.165204786
0.168927312,-0.164992037
0.169424157,-0.164786467
0.169921002,-0.168588072
0.170417847,-0.168396845
0.170914692,-0.172212780
0.171411537,-0.172035873
0.171908382,-0.175866118
0.172405227,-0.179703505
0.172902072,-0.179548032
0.173398917,-0.183399691
0.173895762,-0.187258477
0.174392607,-0.187124382
0.174889452,-0.190997399
0.175386297,-0.194877521
0.175883142,-0.194764742
0.176379987,-0.198659054
0.176876832,-0.202560449
0.177373677,-0.202468921
0.177870522,-0.206384462
0.178367367,-0.210307064
0.178864212,-0.210236719
0.179361057,-0.214173416
0.179857902,-0.214117152
0.180354747,-0.218067913
0.180851592,-0.218025695
0.181348437,-0.221990487
0.181845282,-0.221962283
0.182342127,-0.225941071
0.182838973,-0.225926843
0.183335818,-0.229919590
0.183832663,-0.229919302
0.184329508,-0.229925970
0.184826353,-0.233939583
0.185323198,-0.233960134
0.185820043,-0.233987610
0.186316888,-0.238022004
0.186813733,-0.238063303
0.187310578,-0.238111498
0.187807423,-0.242166582
0.188304268,-0.242228540
0.188801113,-0.246297363
0.189297958,-0.246373041
0.189794803,-0.250455561
0.190291648,-0.250544915
0.190788493,-0.250641088
0.191285338,-0.254744071
0.191782183,-0.254853853
0.192279028,-0.258970424
0.192775873,-0.259093768
0.193272718,-0.263223877
0.193769563,-0.263360736
0.194266408,-0.267504337
0.194763253,-0.267654664
0.195260098,-0.271811707
0.195756943,-0.271975453
0.196253788,-0.276145890
0.196750633,-0.276323004
0.197247479,-0.276506782
0.197744324,-0.280697213
0.198241169,-0.280894283
0.198738014,-0.281097977
0.199234859,-0.281308282
0.199731704,-0.281525186
0.200228549,-0.281748677
0.200725394,-0.281978738
0.201222239,-0.282215356
0.201719084,-0.282458517
0.202215929,-0.282708206
0.202712774,-0.278964410
0.203209619,-0.275227114
0.203706464,-0.275496302
0.204203309,-0.267771961
0.204700154,-0.268054079
0.205196999,-0.260342636
0.205693844,-0.256637620
0.206190689,-0.252939013
0.206687534,-0.249246804
0.207184379,-0.241560974
0.207681224,-0.233881510
0.208178069,-0.230208394
0.208674914,-0.218541612
0.209171759,-0.214881148
0.209668604,-0.207226984
0.210165449,-0.199579105
0.210662294,-0.191937495
0.211159139,-0.184302137
0.211655984,-0.176673015
0.212152830,-0.165050114
0.212649675,-0.161433415
0.213146520,-0.149822900
0.213643365,-0.146218555
0.214140210,-0.138620359
0.214637055,-0.131028298
0.215133900,-0.123442351
0.215630745,-0.119862504
0.216127590,-0.112288737
0.216624435,-0.108721033
0.217121280,-0.105159371
0.217618125,-0.101603736
0.218114970,-0.098054108
0.218611815,-0.094510466
0.219108660,-0.090972795
0.219605505,-0.091441075
0.220102350,-0.087915287
0.220599195,-0.088395412
0.221096040,-0.088881428
0.221592885,-0.089373319
0.222089730,-0.089871061
0.222586575,-0.094374638
0.223083420,-0.094884030
0.223580265,-0.099399216
0.224077110,-0.099920175
0.224573955,-0.104446888
0.225070800,-0.108979336
0.225567645,-0.113517494
0.226064490,-0.118061345
0.226561336,-0.122610868
0.227058181,-0.127166043
0.227555026,-0.131726845
0.228051871,-0.136293255
0.228548716,-0.140865254
0.229045561,-0.149442818
0.229542406,-0.154025927
0.230039251,-0.162614557
0.230536096,-0.167208688
0.231032941,-0.175808297
0.231529786,-0.180413364
0.232026631,-0.189023866
0.232523476,-0.193639781
0.233020321,-0.202261086
0.233517166,-0.210887758
0.234014011,-0.219519776
0.234510856,-0.224157114
0.235007701,-0.232799751
0.235504546,-0.241447664
0.236001391,-0.246100831
0.236498236,-0.254759225
0.236995081,-0.263422826
0.237491926,-0.272091607
0.237988771,-0.276765548
0.238485616,-0.285444622
0.238982461,-0.294128808
0.239479306,-0.298818080
0.239976151,-0.307512413
0.240472996,-0.312211783
0.240969842,-0.316916166
0.241466687,-0.321625537
0.241963532,-0.326339873
0.242460377,-0.331059145
0.242957222,-0.335783332
0.243454067,-0.336512409
0.243950912,-0.341246347
0.244447757,-0.341985126
0.244944602,-0.342728716
0.245441447,-0.339477093
0.245938292,-0.340230231
0.246435137,-0.336988105
0.246931982,-0.329750692
0.247428827,-0.326517962
0.247925672,-0.323289890
0.248422517,-0.316066449
0.248919362,-0.308847616
0.249416207,-0.301633362
0.249913052,-0.294423661
0.250409897,-0.287218488
0.250906742,-0.276017814
0.251403587,-0.260821612
0.251900432,-0.253629859
0.252397277,-0.242442525
0.252894122,-0.231259584
0.253390967,-0.216081008
0.253887812,-0.208906769
0.254384657,-0.193736841
0.254881502,-0.182571197
0.255378347,-0.167409808
0.255875193,-0.156252649
0.256372038,-0.145099690
0.256868883,-0.129950906
0.257365728,-0.122806266
0.257862573,-0.107665744
0.258359418,-0.100529311
0.258856263,-0.089396940
0.259353108,-0.078268602
0.259849953,-0.071144270
0.260346798,-0.060023919
0.260843643,-0.052907514
0.261340488,-0.045795033
0.261837333,-0.042686445
0.262334178,-0.035581722
0.262831023,-0.032480838
0.263327868,-0.025383761
0.263824713,-0.022290467
0.264321558,-0.019200923
0.264818403,-0.016115104
0.265315248,-0.017032981
0.265812093,-0.013954525
0.266308938,-0.014879707
0.266805783,-0.015808500
0.267302628,-0.016740875
0.267799473,-0.017676802
0.268296318,-0.018616254
0.268793163,-0.019559203
0.269290008,-0.020505618
0.269786853,-0.021455472
0.270283699,-0.026408734
0.270780544,-0.027365379
0.271277389,-0.032325374
0.271774234,-0.033288693
0.272271079,-0.038255303
0.272767924,-0.039225179
0.273264769,-0.044198290
0.273761614,-0.045174607
0.274258459,-0.050154101
0.274755304,-0.055136742
0.275252149,-0.056122500
0.275748994,-0.061111347
0.276245839,-0.066103252
0.276742684,-0.071098186
0.277239529,-0.072096122
0.277736374,-0.077097028
0.278233219,-0.082100873
0.278730064,-0.087107628
0.279226909,-0.092117267
0.279723754,-0.097129756
0.280220599,-0.102145066
0.280717444,-0.107163170
0.281214289,-0.112184035
0.281711134,-0.117207631
0.282207979,-0.122233930
0.282704824,-0.127262902
0.283201669,-0.132294517
0.283698514,-0.137328743
0.284195359,-0.142365551
0.284692205,-0.147404912
0.285189050,-0.156446795
0.285685895,-0.161491171
0.286182740,-0.166538009
0.286679585,-0.171587279
0.287176430,-0.176638952
0.287673275,-0.185692998
0.288170120,-0.190749386
0.288666965,-0.195808087
0.289163810,-0.200869071
0.289660655,-0.205932306
0.290157500,-0.210997763
0.290654345,-0.216065414
0.291151190,-0.221135225
0.291648035,-0.222207170
0.292144880,-0.227281215
0.292641725,-0.228357332
0.293138570,-0.229435492
0.293635415,-0.230515663
0.294132260,-0.231597816
0.294629105,-0.232681921
0.295125950,-0.233767947
0.295622795,-0.230855865
0.296119640,-0.227945646
0.296616485,-0.225037259
0.297113330,-0.222130674
0.297610175,-0.219225863
0.298107020,-0.212322795
0.298603865,-0.205421441
0.299100710,-0.198521771
0.299597556,-0.187623755
0.300094401,-0.180727365
0.300591246,-0.169832570
0.301088091,-0.158939341
0.301584936,-0.148047649
0.302081781,-0.137157463
0.302578626,-0.122268756
0.303075471,-0.107381497
0.303572316,-0.096495658
0.304069161,-0.077611208
0.304566006,-0.066728119
0.305062851,-0.047846362
0.305559696,-0.032965908
0.306056541,-0.018086727
0.306553386,-0.003208791
0.307050231,0.015667930
0.307547076,0.034543464
0.308043921,0.045417840
0.308540766,0.064291087
0.309037611,0.079163234
0.309534456,0.094034306
0.310031301,0.108904336
0.310528146,0.123773351
0.311024991,0.134641377
0.311521836,0.149508445
0.312018681,0.164374584
0.312515526,0.175239819
0.313012371,0.186104179
0.313509216,0.196967695
0.314006062,0.207830391
0.314502907,0.214692296
0.314999752,0.221553437
0.315496597,0.228413843
0.315993442,0.235273542
0.316490287,0.242132560
0.316987132,0.248990926
0.317483977,0.251848664
0.317980822,0.254705805
0.318477667,0.261562374
0.318974512,0.260418397
0.319471357,0.263273904
0.319968202,0.262128920
0.320465047,0.264983469
0.320961892,0.263837582
0.321458737,0.262691284
0.321955582,0.265544602
0.322452427,0.260397560
0.322949272,0.259250188
0.323446117,0.258102510
0.323942962,0.256954551
0.324439807,0.255806338
0.324936652,0.250657897
0.325433497,0.249509257
0.325930342,0.244360441
0.326427187,0.243211475
0.326924032,0.238062384
0.327420877,0.236913195
0.327917722,0.231763931
0.328414567,0.226614621
0.328911413,0.225465286
0.329408258,0.220315954
0.329905103,0.219166650
0.330401948,0.214017397
0.330898793,0.212868221
0.331395638,0.207719148
0.331892483,0.206570203
0.332389328,0.201421409
0.332886173,0.196272792
0.333383018,0.195124375
0.333879863,0.193976184
0.334376708,0.188828242
0.334873553,0.187680573
0.335370398,0.182533204
0.335867243,0.181386155
0.336364088,0.180239454
0.336860933,0.175093121
0.337357778,0.173947180
0.337854623,0.172801656
0.338351468,0.167656574
0.338848313,0.166511955
0.339345158,0.161367823
0.339842003,0.160224201
0.340338848,0.159081111
0.340835693,0.153938577
0.341332538,0.152796621
0.341829383,0.151655267
0.342326228,0.146514536
0.342823073,0.145374452
0.343319919,0.144235037
0.343816764,0.139096311
0.344313609,0.137958298
0.344810454,0.132821020
0.345307299,0.131684497
0.345804144,0.126548753
0.346300989,0.121413807
0.346797834,0.120279682
0.347294679,0.115146398
0.347791524,0.114013976
0.348288369,0.108882437
0.348785214,0.103751804
0.349282059,0.098622095
0.349778904,0.097493330
0.350275749,0.092365533
0.350772594,0.087238721
0.351269439,0.082112916
0.351766284,0.076988136
0.352263129,0.071864403
0.352759974,0.070741734
0.353256819,0.065620152
0.353753664,0.060499672
0.354250509,0.055380315
0.354747354,0.050262101
0.355244199,0.045145047
0.355741044,0.044029175
0.356237889,0.038914501
0.356734734,0.033801045
0.357231579,0.028688826
0.357728425,0.027577860
0.358225270,0.022468167
0.358722115,0.017359763
0.359218960,0.016252668
0.359715805,0.011146897
0.360212650,0.010042470
0.360709495,0.004939403
0.361206340,0.003837712
0.361703185,-0.001262582
0.362200030,-0.002361467
0.362696875,-0.007458923
0.363193720,-0.008554934
0.363690565,-0.009649484
0.364187410,-0.010742557
0.364684255,-0.011834136
0.365181100,-0.016924207
0.365677945,-0.018012752
0.366174790,-0.019099756
0.366671635,-0.020185206
0.367168480,-0.021269083
0.367665325,-0.018351376
0.368162170,-0.019432066
0.368659015,-0.020511141
0.369155860,-0.021588585
0.369652705,-0.018664384
0.370149550,-0.019738521
0.370646395,-0.016810987
0.371143240,-0.017881764
0.371640085,-0.014950839
0.372136930,-0.012018199
0.372633776,-0.009083829
0.373130621,-0.006147715
0.373627466,0.000790157
0.374124311,0.003729798
0.374621156,0.006671223
0.375118001,0.009614444
0.375614846,0.016559475
0.376111691,0.019506330
0.376608536,0.026455019
0.377105381,0.033405556
0.377602226,0.040357953
0.378099071,0.047312222
0.378595916,0.054268378
0.379092761,0.061226431
0.379589606,0.068186394
0.380086451,0.075148279
0.380583296,0.086112096
0.381080141,0.089077858
0.381576986,0.100045578
0.382073831,0.103015265
0.382570676,0.113986932
0.383067521,0.116960588
0.383564366,0.127936247
0.384061211,0.130913918
0.384558056,0.137893612
0.385054901,0.144875337
0.385551746,0.151859107
0.386048591,0.154844930
0.386545436,0.161832817
0.387042282,0.164822778
0.387539127,0.167814822
0.388035972,0.174808959
0.388532817,0.177805198
0.389029662,0.180803549
0.389526507,0.183804021
0.390023352,0.186806622
0.390520197,0.189811361
0.391017042,0.188818248
0.391513887,0.191827291
0.392010732,0.194838497
0.392507577,0.197851877
0.393004422,0.196867437
0.393501267,0.199885183
0.393998112,0.198905126
0.394494957,0.197927273
0.394991802,0.200951633
0.395488647,0.199978209
0.395985492,0.199007012
0.396482337,0.198038050
0.396979182,0.197071328
0.397476027,0.196106853
0.397972872,0.195144632
0.398469717,0.194184671
0.398966562,0.193226978
0.399463407,0.192271560
0.399960252,0.191318421
0.400457097,0.190367569
