x (mm),altura (µm)
0.000000000,-2.080535166
0.000356049,-2.068543755
0.000712099,-2.048552345
0.001068148,-2.036560934
0.001424197,-2.016569524
0.001780246,-2.000578113
0.002136296,-1.976586702
0.002492345,-1.960595292
0.002848394,-1.932603881
0.003204443,-1.908612470
0.003560493,-1.884621060
0.003916542,-1.852629649
0.004272591,-1.828638239
0.004628641,-1.792646828
0.004984690,-1.768655417
0.005340739,-1.728664007
0.005696788,-1.700672596
0.006052838,-1.660681186
0.006408887,-1.620689775
0.006764936,-1.584698364
0.007120986,-1.544706954
0.007477035,-1.504715543
0.007833084,-1.456724133
0.008189133,-1.420732722
0.008545183,-1.368741311
0.008901232,-1.328749901
0.009257281,-1.276758490
0.009613330,-1.224767080
0.009969380,-1.180775669
0.010325429,-1.128784258
0.010681478,-1.084792848
0.011037528,-1.028801437
0.011393577,-0.984810026
0.011749626,-0.924818616
0.012105675,-0.880827205
0.012461725,-0.820835795
0.012817774,-0.764844384
0.013173823,-0.716852973
0.013529873,-0.664861563
0.013885922,-0.616870152
0.014241971,-0.560878742
0.014598020,-0.512887331
0.014954070,-0.460895920
0.015310119,-0.412904510
0.015666168,-0.360913099
0.016022217,-0.304921689
0.016378267,-0.268930278
0.016734316,-0.212938867
0.017090365,-0.172947457
0.017446415,-0.124956046
0.017802464,-0.084964635
0.018158513,-0.044973225
0.018514562,-0.004981814
0.018870612,0.035009596
0.019226661,0.075001007
0.019582710,0.106992418
0.019938760,0.142983828
0.020294809,0.170975239
0.020650858,0.206966649
0.021006907,0.226958060
0.021362957,0.258949471
0.021719006,0.282940881
0.022075055,0.306932292
0.022431104,0.330923702
0.022787154,0.346915113
0.023143203,0.370906524
0.023499252,0.382897934
0.023855302,0.398889345
0.024211351,0.410880755
0.024567400,0.422872166
0.024923449,0.434863577
0.025279499,0.442854987
0.025635548,0.450846398
0.025991597,0.458837809
0.026347647,0.462829219
0.026703696,0.470820630
0.027059745,0.470812040
0.027415794,0.474803451
0.027771844,0.478794862
0.028127893,0.478786272
0.028483942,0.482777683
0.028839991,0.478769093
0.029196041,0.482760504
0.029552090,0.478751915
0.029908139,0.478743325
0.030264189,0.474734736
0.030620238,0.474726146
0.030976287,0.466717557
0.031332336,0.466708968
0.031688386,0.462700378
0.032044435,0.458691789
0.032400484,0.454683199
0.032756534,0.450674610
0.033112583,0.442666021
0.033468632,0.438657431
0.033824681,0.434648842
0.034180731,0.426640253
0.034536780,0.418631663
0.034892829,0.410623074
0.035248878,0.402614484
0.035604928,0.394605895
0.035960977,0.386597306
0.036317026,0.374588716
0.036673076,0.366580127
0.037029125,0.354571537
0.037385174,0.346562948
0.037741223,0.330554359
0.038097273,0.322545769
0.038453322,0.310537180
0.038809371,0.298528590
0.039165420,0.286520001
0.039521470,0.274511412
0.039877519,0.258502822
0.040233568,0.250494233
0.040589618,0.234485644
0.040945667,0.226477054
0.041301716,0.214468465
0.041657765,0.202459875
0.042013815,0.194451286
0.042369864,0.178442697
0.042725913,0.170434107
0.043081963,0.158425518
0.043438012,0.150416928
0.043794061,0.138408339
0.044150110,0.130399750
0.044506160,0.122391160
0.044862209,0.118382571
0.045218258,0.106373981
0.045574307,0.102365392
0.045930357,0.094356803
0.046286406,0.090348213
0.046642455,0.082339624
0.046998505,0.078331034
0.047354554,0.070322445
0.047710603,0.066313856
0.048066652,0.058305266
0.048422702,0.054296677
0.048778751,0.046288088
0.049134800,0.042279498
0.049490850,0.030270909
0.049846899,0.026262319
0.050202948,0.014253730
0.050558997,0.002245141
0.050915047,-0.005763449
0.051271096,-0.021772038
0.051627145,-0.029780628
0.051983194,-0.049789217
0.052339244,-0.061797806
0.052695293,-0.081806396
0.053051342,-0.101814985
0.053407392,-0.121823575
0.053763441,-0.141832164
0.054119490,-0.165840753
0.054475539,-0.189849343
0.054831589,-0.213857932
0.055187638,-0.241866522
0.055543687,-0.265875111
0.055899737,-0.297883700
0.056255786,-0.329892290
0.056611835,-0.357900879
0.056967884,-0.393909468
0.057323934,-0.417918058
0.057679983,-0.457926647
0.058036032,-0.485935237
0.058392081,-0.525943826
0.058748131,-0.549952415
0.059104180,-0.589961005
0.059460229,-0.625969594
0.059816279,-0.657978184
0.060172328,-0.693986773
0.060528377,-0.725995362
0.060884426,-0.762003952
0.061240476,-0.790012541
0.061596525,-0.826021131
0.061952574,-0.858029720
0.062308624,-0.890038309
0.062664673,-0.926046899
0.063020722,-0.950055488
0.063376771,-0.982064078
0.063732821,-1.006072667
0.064088870,-1.038081256
0.064444919,-1.062089846
0.064800968,-1.094098435
0.065157018,-1.118107024
0.065513067,-1.142115614
0.065869116,-1.166124203
0.066225166,-1.186132793
0.066581215,-1.210141382
0.066937264,-1.226149971
0.067293313,-1.246158561
0.067649363,-1.262167150
0.068005412,-1.282175740
0.068361461,-1.298184329
0.068717511,-1.314192918
0.069073560,-1.330201508
0.069429609,-1.342210097
0.069785658,-1.354218687
0.070141708,-1.370227276
0.070497757,-1.378235865
0.070853806,-1.390244455
0.071209855,-1.402253044
0.071565905,-1.414261633
0.071921954,-1.418270223
0.072278003,-1.430278812
0.072634053,-1.434287402
0.072990102,-1.442295991
0.073346151,-1.446304580
0.073702200,-1.454313170
0.074058250,-1.454321759
0.074414299,-1.462330349
0.074770348,-1.462338938
0.075126397,-1.470347527
0.075482447,-1.470356117
0.075838496,-1.474364706
0.076194545,-1.470373296
0.076550595,-1.474381885
0.076906644,-1.470390474
0.077262693,-1.470399064
0.077618742,-1.466407653
0.077974792,-1.466416243
0.078330841,-1.458424832
0.078686890,-1.454433421
0.079042940,-1.446442011
0.079398989,-1.442450600
0.079755038,-1.430459189
0.080111087,-1.422467779
0.080467137,-1.410476368
0.080823186,-1.398484958
0.081179235,-1.378493547
0.081535284,-1.366502136
0.081891334,-1.342510726
0.082247383,-1.326519315
0.082603432,-1.302527905
0.082959482,-1.282536494
0.083315531,-1.254545083
0.083671580,-1.230553673
0.084027629,-1.198562262
0.084383679,-1.162570852
0.084739728,-1.130579441
0.085095777,-1.094588030
0.085451827,-1.058596620
0.085807876,-1.014605209
0.086163925,-0.974613799
0.086519974,-0.926622388
0.086876024,-0.870630977
0.087232073,-0.830639567
0.087588122,-0.774648156
0.087944171,-0.722656745
0.088300221,-0.658665335
0.088656270,-0.606673924
0.089012319,-0.538682514
0.089368369,-0.478691103
0.089724418,-0.402699692
0.090080467,-0.322708282
0.090436516,-0.258716871
0.090792566,-0.174725461
0.091148615,-0.106734050
0.091504664,-0.014742639
0.091860714,0.057248771
0.092216763,0.157240182
0.092572812,0.233231592
0.092928861,0.333223003
0.093284911,0.437214414
0.093640960,0.521205824
0.093997009,0.629197235
0.094353058,0.717188646
0.094709108,0.825180056
0.095065157,0.917171467
0.095421206,1.029162877
0.095777256,1.125154288
0.096133305,1.237145699
0.096489354,1.357137109
0.096845403,1.449128520
0.097201453,1.569119930
0.097557502,1.661111341
0.097913551,1.777102752
0.098269601,1.869094162
0.098625650,1.985085573
0.098981699,2.073076983
0.099337748,2.185068394
0.099693798,2.293059805
0.100049847,2.381051215
0.100405896,2.481042626
0.100761945,2.565034036
0.101117995,2.661025447
0.101474044,2.741016858
0.101830093,2.829008268
0.102186143,2.904999679
0.102542192,2.984991090
0.102898241,3.068982500
0.103254290,3.128973911
0.103610340,3.200965321
0.103966389,3.260956732
0.104322438,3.324948143
0.104678488,3.376939553
0.105034537,3.432930964
0.105390586,3.480922374
0.105746635,3.528913785
0.106102685,3.580905196
0.106458734,3.612896606
0.106814783,3.656888017
0.107170832,3.684879427
0.107526882,3.720870838
0.107882931,3.744862249
0.108238980,3.776853659
0.108595030,3.800845070
0.108951079,3.820836480
0.109307128,3.840827891
0.109663177,3.860819302
0.110019227,3.872810712
0.110375276,3.888802123
0.110731325,3.900793534
0.111087374,3.908784944
0.111443424,3.916776355
0.111799473,3.928767765
0.112155522,3.928759176
0.112511572,3.936750587
0.112867621,3.936741997
0.113223670,3.936733408
0.113579719,3.940724818
0.113935769,3.936716229
0.114291818,3.940707640
0.114647867,3.936699050
0.115003917,3.932690461
0.115359966,3.928681871
0.115716015,3.924673282
0.116072064,3.920664693
0.116428114,3.916656103
0.116784163,3.908647514
0.117140212,3.900638925
0.117496261,3.892630335
0.117852311,3.884621746
0.118208360,3.872613156
0.118564409,3.864604567
0.118920459,3.852595978
0.119276508,3.844587388
0.119632557,3.828578799
0.119988606,3.820570209
0.120344656,3.804561620
0.120700705,3.788553031
0.121056754,3.772544441
0.121412804,3.752535852
0.121768853,3.740527262
0.122124902,3.716518673
0.122480951,3.700510084
0.122837001,3.672501494
0.123193050,3.656492905
0.123549099,3.624484315
0.123905148,3.604475726
0.124261198,3.568467137
0.124617247,3.536458547
0.124973296,3.504449958
0.125329346,3.468441369
0.125685395,3.432432779
0.126041444,3.388424190
0.126397493,3.348415600
0.126753543,3.300407011
0.127109592,3.244398422
0.127465641,3.196389832
0.127821691,3.140381243
0.128177740,3.084372653
0.128533789,3.020364064
0.128889838,2.964355475
0.129245888,2.896346885
0.129601937,2.832338296
0.129957986,2.756329706
0.130314035,2.672321117
0.130670085,2.608312528
0.131026134,2.520303938
0.131382183,2.448295349
0.131738233,2.356286759
0.132094282,2.280278170
0.132450331,2.180269581
0.132806380,2.100260991
0.133162430,2.000252402
0.133518479,1.896243813
0.133874528,1.812235223
0.134230578,1.704226634
0.134586627,1.620218044
0.134942676,1.508209455
0.135298725,1.424200866
0.135654775,1.316192276
0.136010824,1.228183687
0.136366873,1.120175097
0.136722922,1.016166508
0.137078972,0.928157919
0.137435021,0.824149329
0.137791070,0.736140740
0.138147120,0.632132150
0.138503169,0.556123561
0.138859218,0.452114972
0.139215267,0.380106382
0.139571317,0.284097793
0.139927366,0.192089203
0.140283415,0.120080614
0.140639465,0.036072025
0.140995514,-0.031936565
0.141351563,-0.107945154
0.141707612,-0.167953743
0.142063662,-0.239962333
0.142419711,-0.295970922
0.142775760,-0.359979512
0.143131809,-0.419988101
0.143487859,-0.467996690
0.143843908,-0.520005280
0.144199957,-0.564013869
0.144556007,-0.608022459
0.144912056,-0.644031048
0.145268105,-0.684039637
0.145624154,-0.716048227
0.145980204,-0.748056816
0.146336253,-0.780065406
0.146692302,-0.804073995
0.147048351,-0.832082584
0.147404401,-0.852091174
0.147760450,-0.872099763
0.148116499,-0.892108352
0.148472549,-0.904116942
0.148828598,-0.924125531
0.149184647,-0.932134121
0.149540696,-0.944142710
0.149896746,-0.952151299
0.150252795,-0.964159889
0.150608844,-0.968168478
0.150964894,-0.976177068
0.151320943,-0.976185657
0.151676992,-0.984194246
0.152033041,-0.988202836
0.152389091,-0.988211425
0.152745140,-0.988220015
0.153101189,-0.988228604
0.153457238,-0.988237193
0.153813288,-0.984245783
0.154169337,-0.984254372
0.154525386,-0.980262962
0.154881436,-0.976271551
0.155237485,-0.972280140
0.155593534,-0.972288730
0.155949583,-0.968297319
0.156305633,-0.964305908
0.156661682,-0.960314498
0.157017731,-0.952323087
0.157373781,-0.952331677
0.157729830,-0.944340266
0.158085879,-0.940348855
0.158441928,-0.936357445
0.158797978,-0.932366034
0.159154027,-0.928374624
0.159510076,-0.928383213
0.159866125,-0.924391802
0.160222175,-0.920400392
0.160578224,-0.920408981
0.160934273,-0.920417571
0.161290323,-0.920426160
0.161646372,-0.916434749
0.162002421,-0.920443339
0.162358470,-0.920451928
0.162714520,-0.924460518
0.163070569,-0.928469107
0.163426618,-0.932477696
0.163782668,-0.936486286
0.164138717,-0.940494875
0.164494766,-0.948503464
0.164850815,-0.952512054
0.165206865,-0.960520643
0.165562914,-0.964529233
0.165918963,-0.976537822
0.166275012,-0.980546411
0.166631062,-0.992555001
0.166987111,-1.004563590
0.167343160,-1.008572180
0.167699210,-1.020580769
0.168055259,-1.028589358
0.168411308,-1.040597948
0.168767357,-1.048606537
0.169123407,-1.060615127
0.169479456,-1.068623716
0.169835505,-1.076632305
0.170191555,-1.088640895
0.170547604,-1.096649484
0.170903653,-1.108658073
0.171259702,-1.112666663
0.171615752,-1.124675252
0.171971801,-1.128683842
0.172327850,-1.136692431
0.172683899,-1.144701020
0.173039949,-1.152709610
0.173395998,-1.160718199
0.173752047,-1.160726789
0.174108097,-1.168735378
0.174464146,-1.168743967
0.174820195,-1.176752557
0.175176244,-1.176761146
0.175532294,-1.180769736
0.175888343,-1.176778325
0.176244392,-1.180786914
0.176600442,-1.180795504
0.176956491,-1.180804093
0.177312540,-1.180812683
0.177668589,-1.176821272
0.178024639,-1.176829861
0.178380688,-1.168838451
0.178736737,-1.168847040
0.179092786,-1.160855629
0.179448836,-1.160864219
0.179804885,-1.156872808
0.180160934,-1.148881398
0.180516984,-1.144889987
0.180873033,-1.136898576
0.181229082,-1.132907166
0.181585131,-1.124915755
0.181941181,-1.120924345
0.182297230,-1.112932934
0.182653279,-1.104941523
0.183009328,-1.100950113
0.183365378,-1.092958702
0.183721427,-1.088967292
0.184077476,-1.080975881
0.184433526,-1.076984470
0.184789575,-1.068993060
0.185145624,-1.065001649
0.185501673,-1.061010239
0.185857723,-1.053018828
0.186213772,-1.053027417
0.186569821,-1.045036007
0.186925871,-1.045044596
0.187281920,-1.037053185
0.187637969,-1.037061775
0.187994018,-1.037070364
0.188350068,-1.033078954
0.188706117,-1.029087543
0.189062166,-1.029096132
0.189418215,-1.029104722
0.189774265,-1.025113311
0.190130314,-1.025121901
0.190486363,-1.025130490
0.190842413,-1.025139079
0.191198462,-1.029147669
0.191554511,-1.025156258
0.191910560,-1.029164848
0.192266610,-1.029173437
0.192622659,-1.033182026
0.192978708,-1.033190616
0.193334758,-1.037199205
0.193690807,-1.041207794
0.194046856,-1.041216384
0.194402905,-1.045224973
0.194758955,-1.045233563
0.195115004,-1.049242152
0.195471053,-1.049250741
0.195827102,-1.057259331
0.196183152,-1.061267920
0.196539201,-1.061276510
0.196895250,-1.069285099
0.197251300,-1.069293688
0.197607349,-1.073302278
0.197963398,-1.073310867
0.198319447,-1.081319457
0.198675497,-1.085328046
0.199031546,-1.085336635
0.199387595,-1.089345225
0.199743645,-1.093353814
0.200099694,-1.097362404
0.200455743,-1.097370993
0.200811792,-1.101379582
0.201167842,-1.101388172
0.201523891,-1.105396761
0.201879940,-1.109405350
0.202235989,-1.109413940
0.202592039,-1.109422529
0.202948088,-1.109431119
0.203304137,-1.109439708
0.203660187,-1.109448297
0.204016236,-1.109456887
0.204372285,-1.113465476
0.204728334,-1.109474066
0.205084384,-1.109482655
0.205440433,-1.105491244
0.205796482,-1.105499834
0.206152532,-1.105508423
0.206508581,-1.101517013
0.206864630,-1.101525602
0.207220679,-1.097534191
0.207576729,-1.093542781
0.207932778,-1.089551370
0.208288827,-1.085559960
0.208644876,-1.085568549
0.209000926,-1.077577138
0.209356975,-1.073585728
0.209713024,-1.065594317
0.210069074,-1.061602906
0.210425123,-1.053611496
0.210781172,-1.045620085
0.211137221,-1.041628675
0.211493271,-1.029637264
0.211849320,-1.025645853
0.212205369,-1.013654443
0.212561419,-1.005663032
0.212917468,-0.993671622
0.213273517,-0.985680211
0.213629566,-0.973688800
0.213985616,-0.957697390
0.214341665,-0.945705979
0.214697714,-0.929714569
0.215053763,-0.917723158
0.215409813,-0.897731747
0.215765862,-0.885740337
0.216121911,-0.869748926
0.216477961,-0.849757516
0.216834010,-0.833766105
0.217190059,-0.809774694
0.217546108,-0.797783284
0.217902158,-0.777791873
0.218258207,-0.761800462
0.218614256,-0.741809052
0.218970305,-0.725817641
0.219326355,-0.705826231
0.219682404,-0.689834820
0.220038453,-0.673843409
0.220394503,-0.657851999
0.220750552,-0.641860588
0.221106601,-0.625869178
0.221462650,-0.609877767
0.221818700,-0.597886356
0.222174749,-0.589894946
0.222530798,-0.577903535
0.222886848,-0.569912125
0.223242897,-0.561920714
0.223598946,-0.553929303
0.223954995,-0.549937893
0.224311045,-0.549946482
0.224667094,-0.549955071
0.225023143,-0.545963661
0.225379192,-0.549972250
0.225735242,-0.549980840
0.226091291,-0.553989429
0.226447340,-0.561998018
0.226803390,-0.566006608
0.227159439,-0.574015197
0.227515488,-0.578023787
0.227871537,-0.590032376
0.228227587,-0.594040965
0.228583636,-0.606049555
0.228939685,-0.618058144
0.229295735,-0.626066734
0.229651784,-0.638075323
0.230007833,-0.646083912
0.230363882,-0.658092502
0.230719932,-0.670101091
0.231075981,-0.678109681
0.231432030,-0.694118270
0.231788079,-0.698126859
0.232144129,-0.710135449
0.232500178,-0.718144038
0.232856227,-0.730152627
0.233212277,-0.742161217
0.233568326,-0.746169806
0.233924375,-0.758178396
0.234280424,-0.762186985
0.234636474,-0.770195574
0.234992523,-0.778204164
0.235348572,-0.786212753
0.235704622,-0.794221343
0.236060671,-0.798229932
0.236416720,-0.806238521
0.236772769,-0.814247111
0.237128819,-0.818255700
0.237484868,-0.826264290
0.237840917,-0.830272879
0.238196966,-0.838281468
0.238553016,-0.842290058
0.238909065,-0.850298647
0.239265114,-0.858307237
0.239621164,-0.866315826
0.239977213,-0.870324415
0.240333262,-0.878333005
0.240689311,-0.886341594
0.241045361,-0.894350183
0.241401410,-0.898358773
0.241757459,-0.906367362
0.242113509,-0.910375952
0.242469558,-0.918384541
0.242825607,-0.926393130
0.243181656,-0.930401720
0.243537706,-0.938410309
0.243893755,-0.938418899
0.244249804,-0.946427488
0.244605853,-0.954436077
0.244961903,-0.954444667
0.245317952,-0.962453256
0.245674001,-0.962461846
0.246030051,-0.966470435
0.246386100,-0.970479024
0.246742149,-0.974487614
0.247098198,-0.974496203
0.247454248,-0.974504792
0.247810297,-0.978513382
0.248166346,-0.978521971
0.248522395,-0.978530561
0.248878445,-0.978539150
0.249234494,-0.978547739
0.249590543,-0.978556329
0.249946593,-0.974564918
0.250302642,-0.974573508
0.250658691,-0.974582097
0.251014740,-0.970590686
0.251370790,-0.970599276
0.251726839,-0.962607865
0.252082888,-0.962616455
0.252438938,-0.962625044
0.252794987,-0.954633633
0.253151036,-0.954642223
0.253507085,-0.946650812
0.253863135,-0.942659402
0.254219184,-0.938667991
0.254575233,-0.934676580
0.254931282,-0.930685170
0.255287332,-0.922693759
0.255643381,-0.918702348
0.255999430,-0.918710938
0.256355480,-0.910719527
0.256711529,-0.906728117
0.257067578,-0.898736706
0.257423627,-0.894745295
0.257779677,-0.890753885
0.258135726,-0.882762474
0.258491775,-0.878771064
0.258847825,-0.866779653
0.259203874,-0.866788242
0.259559923,-0.858796832
0.259915972,-0.850805421
0.260272022,-0.846814011
0.260628071,-0.838822600
0.260984120,-0.834831189
0.261340169,-0.830839779
0.261696219,-0.822848368
0.262052268,-0.814856958
0.262408317,-0.810865547
0.262764367,-0.802874136
0.263120416,-0.798882726
0.263476465,-0.790891315
0.263832514,-0.786899904
0.264188564,-0.778908494
0.264544613,-0.774917083
0.264900662,-0.774925673
0.265256712,-0.766934262
0.265612761,-0.762942851
0.265968810,-0.754951441
0.266324859,-0.754960030
0.266680909,-0.750968620
0.267036958,-0.746977209
0.267393007,-0.742985798
0.267749056,-0.742994388
0.268105106,-0.739002977
0.268461155,-0.739011567
0.268817204,-0.735020156
0.269173254,-0.735028745
0.269529303,-0.735037335
0.269885352,-0.731045924
0.270241401,-0.735054514
0.270597451,-0.731063103
0.270953500,-0.735071692
0.271309549,-0.735080282
0.271665599,-0.735088871
0.272021648,-0.739097460
0.272377697,-0.735106050
0.272733746,-0.739114639
0.273089796,-0.743123229
0.273445845,-0.743131818
0.273801894,-0.747140407
0.274157943,-0.747148997
0.274513993,-0.747157586
0.274870042,-0.751166176
0.275226091,-0.751174765
0.275582141,-0.755183354
0.275938190,-0.755191944
0.276294239,-0.759200533
0.276650288,-0.763209123
0.277006338,-0.763217712
0.277362387,-0.767226301
0.277718436,-0.771234891
0.278074486,-0.767243480
0.278430535,-0.771252069
0.278786584,-0.771260659
0.279142633,-0.771269248
0.279498683,-0.775277838
0.279854732,-0.775286427
0.280210781,-0.775295016
0.280566830,-0.775303606
0.280922880,-0.775312195
0.281278929,-0.779320785
0.281634978,-0.775329374
0.281991028,-0.775337963
0.282347077,-0.775346553
0.282703126,-0.775355142
0.283059175,-0.779363732
0.283415225,-0.775372321
0.283771274,-0.775380910
0.284127323,-0.779389500
0.284483372,-0.775398089
0.284839422,-0.775406679
0.285195471,-0.775415268
0.285551520,-0.775423857
0.285907570,-0.775432447
0.286263619,-0.775441036
0.286619668,-0.775449625
0.286975717,-0.775458215
0.287331767,-0.775466804
