x (mm),altura (µm)
0.000000000,-1.301207843
0.000356049,-1.289247541
0.000712099,-1.273289644
0.001068148,-1.261334104
0.001424197,-1.245380871
0.001780246,-1.229429900
0.002136296,-1.209481143
0.002492345,-1.193534550
0.002848394,-1.169590076
0.003204443,-1.145647673
0.003560493,-1.125707291
0.003916542,-1.097768884
0.004272591,-1.073832401
0.004628641,-1.041897796
0.004984690,-1.017965019
0.005340739,-0.982034022
0.005696788,-0.954104756
0.006052838,-0.918177172
0.006408887,-0.878251223
0.006764936,-0.846326857
0.007120986,-0.806404028
0.007477035,-0.770482685
0.007833084,-0.726562781
0.008189133,-0.690644264
0.008545183,-0.642727086
0.008901232,-0.602811197
0.009257281,-0.554896548
0.009613330,-0.502983089
0.009969380,-0.463070772
0.010325429,-0.411159547
0.010681478,-0.371249364
0.011037528,-0.315340173
0.011393577,-0.275431924
0.011749626,-0.219524568
0.012105675,-0.175618052
0.012461725,-0.119712330
0.012817774,-0.063807350
0.013173823,-0.019903063
0.013529873,0.032000581
0.013885922,0.075903635
0.014241971,0.131806145
0.014598020,0.175708163
0.014954070,0.227609739
0.015310119,0.271510924
0.015666168,0.323411767
0.016022217,0.375312319
0.016378267,0.411212630
0.016734316,0.463112750
0.017090365,0.499012729
0.017446415,0.546912618
0.017802464,0.582812467
0.018158513,0.622712327
0.018514562,0.658612248
0.018870612,0.698512279
0.019226661,0.734412471
0.019582710,0.766312875
0.019938760,0.798213541
0.020294809,0.826114519
0.020650858,0.858015859
0.021006907,0.877917612
0.021362957,0.905819827
0.021719006,0.925722554
0.022075055,0.949625845
0.022431104,0.969529747
0.022787154,0.985434313
0.023143203,1.005339591
0.023499252,1.017245633
0.023855302,1.029152488
0.024211351,1.041060205
0.024567400,1.048968836
0.024923449,1.060878431
0.025279499,1.064789038
0.025635548,1.072700707
0.025991597,1.076613489
0.026347647,1.080527435
0.026703696,1.084442593
0.027059745,1.084359013
0.027415794,1.084276748
0.027771844,1.084195845
0.028127893,1.084116356
0.028483942,1.084038326
0.028839991,1.079961809
0.029196041,1.079886854
0.029552090,1.075813512
0.029908139,1.071741832
0.030264189,1.067671864
0.030620238,1.063603659
0.030976287,1.055537266
0.031332336,1.051472736
0.031688386,1.047410116
0.032044435,1.039349456
0.032400484,1.035290809
0.032756534,1.027234224
0.033112583,1.019179749
0.033468632,1.011127435
0.033824681,1.003077332
0.034180731,0.995029487
0.034536780,0.982983952
0.034892829,0.974940775
0.035248878,0.962900006
0.035604928,0.954861694
0.035960977,0.942825890
0.036317026,0.930792640
0.036673076,0.918761995
0.037029125,0.906734004
0.037385174,0.894708714
0.037741223,0.878686175
0.038097273,0.866666436
0.038453322,0.854649544
0.038809371,0.838635548
0.039165420,0.826624496
0.039521470,0.810616437
0.039877519,0.794611417
0.040233568,0.782609486
0.040589618,0.766610690
0.040945667,0.754615078
0.041301716,0.738622697
0.041657765,0.726633593
0.042013815,0.714647814
0.042369864,0.698665408
0.042725913,0.686686421
0.043081963,0.674710901
0.043438012,0.662738894
0.043794061,0.650770446
0.044150110,0.638805605
0.044506160,0.630844415
0.044862209,0.622886924
0.045218258,0.610933177
0.045574307,0.602983222
0.045930357,0.595037104
0.046286406,0.587094867
0.046642455,0.579156558
0.046998505,0.571222224
0.047354554,0.563291910
0.047710603,0.555365658
0.048066652,0.547443515
0.048422702,0.539525527
0.048778751,0.531611739
0.049134800,0.523702194
0.049490850,0.511796937
0.049846899,0.503896013
0.050202948,0.491999466
0.050558997,0.476107341
0.050915047,0.464219679
0.051271096,0.448336525
0.051627145,0.436457924
0.051983194,0.416583917
0.052339244,0.400714548
0.052695293,0.380849860
0.053051342,0.356989895
0.053407392,0.337134698
0.053763441,0.313284309
0.054119490,0.289438771
0.054475539,0.261598125
0.054831589,0.237762413
0.055187638,0.205931677
0.055543687,0.182105956
0.055899737,0.146285293
0.056255786,0.114469730
0.056611835,0.082659305
0.056967884,0.046854059
0.057323934,0.019054032
0.057679983,-0.020740735
0.058036032,-0.052530203
0.058392081,-0.092314331
0.058748131,-0.120093082
0.059104180,-0.159866417
0.059460229,-0.199634296
0.059816279,-0.231396680
0.060172328,-0.271153532
0.060528377,-0.302904813
0.060884426,-0.342650485
0.061240476,-0.370390510
0.061596525,-0.410124853
0.061952574,-0.441853474
0.062308624,-0.477576334
0.062664673,-0.513293400
0.063020722,-0.541004634
0.063376771,-0.572710000
0.063732821,-0.600409458
0.064088870,-0.632102976
0.064444919,-0.659790516
0.064800968,-0.691472043
0.065157018,-0.719147521
0.065513067,-0.742816915
0.065869116,-0.770480192
0.066225166,-0.790137314
0.066581215,-0.817788246
0.066937264,-0.837432956
0.067293313,-0.857071407
0.067649363,-0.876703568
0.068005412,-0.896329403
0.068361461,-0.915948879
0.068717511,-0.931561963
0.069073560,-0.951168623
0.069429609,-0.962768825
0.069785658,-0.978362537
0.070141708,-0.993949725
0.070497757,-1.005530359
0.070853806,-1.017104406
0.071209855,-1.032671835
0.071565905,-1.044232614
0.071921954,-1.051786712
0.072278003,-1.063334098
0.072634053,-1.070874743
0.072990102,-1.078408614
0.073346151,-1.085935682
0.073702200,-1.093455918
0.074058250,-1.096969291
0.074414299,-1.104475774
0.074770348,-1.107975336
0.075126397,-1.115467949
0.075482447,-1.118953584
0.075838496,-1.122432211
0.076194545,-1.121903805
0.076550595,-1.125368337
0.076906644,-1.124825780
0.077262693,-1.124276106
0.077618742,-1.123719289
0.077974792,-1.123155302
0.078330841,-1.118584117
0.078686890,-1.114005709
0.079042940,-1.109420053
0.079398989,-1.104827123
0.079755038,-1.096226894
0.080111087,-1.087619340
0.080467137,-1.079004438
0.080823186,-1.066382164
0.081179235,-1.049752491
0.081535284,-1.037115398
0.081891334,-1.016470861
0.082247383,-0.999818855
0.082603432,-0.979159358
0.082959482,-0.958492350
0.083315531,-0.933817807
0.083671580,-0.909135707
0.084027629,-0.880446028
0.084383679,-0.843748749
0.084739728,-0.815043852
0.085095777,-0.778331311
0.085451827,-0.745611110
0.085807876,-0.700883228
0.086163925,-0.664147646
0.086519974,-0.615404343
0.086876024,-0.562653303
0.087232073,-0.521894503
0.087588122,-0.465127928
0.087944171,-0.416353559
0.088300221,-0.351571379
0.088656270,-0.302781371
0.089012319,-0.233983517
0.089368369,-0.177177802
0.089724418,-0.100364206
0.090080467,-0.023542716
0.090436516,0.041286684
0.090792566,0.122124011
0.091148615,0.190969280
0.091504664,0.279822503
0.091860714,0.352683698
0.092216763,0.449552877
0.092572812,0.526430055
0.092928861,0.623315244
0.093284911,0.728208460
0.093640960,0.809109714
0.093997009,0.918019017
0.094353058,1.002936385
0.094709108,1.111861828
0.095065157,1.200795359
0.095421206,1.313736989
0.095777256,1.406686727
0.096133305,1.519644586
0.096489354,1.636610576
0.096845403,1.729584708
0.097201453,1.846566991
0.097557502,1.939557434
0.097913551,2.052556047
0.098269601,2.145562838
0.098625650,2.258577818
0.098981699,2.347600993
0.099337748,2.456632372
0.099693798,2.565671962
0.100049847,2.650719770
0.100405896,2.751775802
0.100761945,2.832840069
0.101117995,2.929912574
0.101474044,3.006993323
0.101830093,3.096082323
0.102186143,3.169179580
0.102542192,3.250285098
0.102898241,3.331398882
0.103254290,3.392520936
0.103610340,3.465651265
0.103966389,3.522789873
0.104322438,3.587936762
0.104678488,3.637091937
0.105034537,3.694255400
0.105390586,3.739427156
0.105746635,3.788607205
0.106102685,3.837795549
0.106458734,3.870992190
0.106814783,3.912197129
0.107170832,3.941410367
0.107526882,3.974631904
0.107882931,3.999861744
0.108238980,4.029099884
0.108595030,4.054346326
0.108951079,4.071601067
0.109307128,4.092864107
0.109663177,4.110135445
0.110019227,4.123415079
0.110375276,4.136703009
0.110731325,4.149999231
0.111087374,4.155303744
0.111443424,4.164616543
0.111799473,4.173937627
0.112155522,4.175266991
0.112511572,4.180604632
0.112867621,4.181950548
0.113223670,4.183304731
0.113579719,4.184667179
0.113935769,4.182037886
0.114291818,4.183416848
0.114647867,4.180804057
0.115003917,4.174199508
0.115359966,4.171603196
0.115716015,4.165015114
0.116072064,4.162435255
0.116428114,4.155863610
0.116784163,4.149300174
0.117140212,4.138744938
0.117496261,4.132197894
0.117852311,4.121659034
0.118208360,4.111128350
0.118564409,4.100605831
0.118920459,4.090091468
0.119276508,4.079585252
0.119632557,4.065087173
0.119988606,4.054597221
0.120344656,4.040115385
0.120700705,4.025641655
0.121056754,4.007176019
0.121412804,3.988718466
0.121768853,3.974268983
0.122124902,3.951827560
0.122480951,3.933394184
0.122837001,3.906968841
0.123193050,3.888551519
0.123549099,3.858142205
0.123905148,3.835740885
0.124261198,3.801347545
0.124617247,3.766962171
0.124973296,3.736584749
0.125329346,3.698215264
0.125685395,3.663853701
0.126041444,3.617500044
0.126397493,3.579154278
0.126753543,3.528816387
0.127109592,3.474486355
0.127465641,3.428164166
0.127821691,3.369849802
0.128177740,3.315543246
0.128533789,3.249244482
0.128889838,3.194953492
0.129245888,3.124670257
0.129601937,3.062394760
0.129957986,2.984126982
0.130314035,2.901866904
0.130670085,2.835614508
0.131026134,2.749369774
0.131382183,2.675132684
0.131738233,2.584903217
0.132094282,2.506681353
0.132450331,2.408467071
0.132806380,2.330260350
0.133162430,2.228061171
0.133518479,2.125869513
0.133874528,2.039685353
0.134230578,1.933508669
0.134586627,1.847339442
0.134942676,1.737177647
0.135298725,1.651023262
0.135654775,1.544876266
0.136010824,1.454736634
0.136366873,1.348604344
0.136722922,1.242479372
0.137078972,1.156361695
0.137435021,1.050251288
0.137791070,0.964148127
0.138147120,0.862052188
0.138503169,0.783963446
0.138859218,0.681881875
0.139215267,0.607807452
0.139571317,0.513740148
0.139927366,0.419679941
0.140283415,0.349626805
0.140639465,0.263580710
0.140995514,0.197541633
0.141351563,0.119509547
0.141707612,0.061484423
0.142063662,-0.012533764
0.142419711,-0.066545042
0.142775760,-0.132549440
0.143131809,-0.190546985
0.143487859,-0.236537703
0.143843908,-0.290521624
0.144199957,-0.332498778
0.144556007,-0.378469192
0.144912056,-0.412432895
0.145268105,-0.454389916
0.145624154,-0.484340287
0.145980204,-0.518284034
0.146336253,-0.548221189
0.146692302,-0.574151780
0.147048351,-0.600075840
0.147404401,-0.617993397
0.147760450,-0.639904484
0.148116499,-0.657809131
0.148472549,-0.671707369
0.148828598,-0.689599229
0.149184647,-0.699484742
0.149540696,-0.709363940
0.149896746,-0.719236858
0.150252795,-0.729103525
0.150608844,-0.734963973
0.150964894,-0.740818236
0.151320943,-0.742666347
0.151676992,-0.748508338
0.152033041,-0.750344242
0.152389091,-0.752174094
0.152745140,-0.749997926
0.153101189,-0.751815772
0.153457238,-0.749627666
0.153813288,-0.747433643
0.154169337,-0.745233735
0.154525386,-0.743027978
0.154881436,-0.736816406
0.155237485,-0.734599055
0.155593534,-0.732375957
0.155949583,-0.726147151
0.156305633,-0.723912670
0.156661682,-0.717672548
0.157017731,-0.711426824
0.157373781,-0.709175532
0.157729830,-0.702918708
0.158085879,-0.696656387
0.158441928,-0.694388606
0.158797978,-0.688115402
0.159154027,-0.685836811
0.159510076,-0.683552869
0.159866125,-0.677263615
0.160222175,-0.674969084
0.160578224,-0.672669315
0.160934273,-0.674364342
0.161290323,-0.672054205
0.161646372,-0.669738942
0.162002421,-0.671418588
0.162358470,-0.673093183
0.162714520,-0.674762764
0.163070569,-0.676427371
0.163426618,-0.682087039
0.163782668,-0.683741808
0.164138717,-0.689391718
0.164494766,-0.695036805
0.164850815,-0.700677111
0.165206865,-0.706312672
0.165562914,-0.711943528
0.165918963,-0.721569717
0.166275012,-0.727191281
0.166631062,-0.736808256
0.166987111,-0.746420683
0.167343160,-0.752028601
0.167699210,-0.761632051
0.168055259,-0.771231074
0.168411308,-0.780825705
0.168767357,-0.790415990
0.169123407,-0.800001963
0.169479456,-0.809583669
0.169835505,-0.815161145
0.170191555,-0.824734432
0.170547604,-0.834303571
0.170903653,-0.843868603
0.171259702,-0.849429569
0.171615752,-0.858986508
0.171971801,-0.864539462
0.172327850,-0.870088471
0.172683899,-0.879633575
0.173039949,-0.885174817
0.173395998,-0.890712237
0.173752047,-0.892245876
0.174108097,-0.897775775
0.174464146,-0.899301975
0.174820195,-0.904824519
0.175176244,-0.906343447
0.175532294,-0.907858801
0.175888343,-0.905370622
0.176244392,-0.906878953
0.176600442,-0.904383834
0.176956491,-0.905885306
0.177312540,-0.903383414
0.177668589,-0.900878197
0.178024639,-0.898369700
0.178380688,-0.891857962
0.178736737,-0.889343027
0.179092786,-0.882824935
0.179448836,-0.880303731
0.179804885,-0.873779454
0.180160934,-0.867252149
0.180516984,-0.860721857
0.180873033,-0.854188620
0.181229082,-0.847652482
0.181585131,-0.841113483
0.181941181,-0.834571668
0.182297230,-0.824027078
0.182653279,-0.817479756
0.183009328,-0.810929745
0.183365378,-0.804377088
0.183721427,-0.797821824
0.184077476,-0.791263999
0.184433526,-0.784703656
0.184789575,-0.778140836
0.185145624,-0.771575582
0.185501673,-0.765007937
0.185857723,-0.758437942
0.186213772,-0.755865643
0.186569821,-0.749291081
0.186925871,-0.746714299
0.187281920,-0.740135339
0.187637969,-0.737554246
0.187994018,-0.734971059
0.188350068,-0.732385823
0.188706117,-0.725798582
0.189062166,-0.727209376
0.189418215,-0.724618249
0.189774265,-0.722025246
0.190130314,-0.719430406
0.190486363,-0.720833775
0.190842413,-0.718235392
0.191198462,-0.719635303
0.191554511,-0.717033549
0.191910560,-0.718430173
0.192266610,-0.719825216
0.192622659,-0.721218725
0.192978708,-0.722610738
0.193334758,-0.724001301
0.193690807,-0.725390453
0.194046856,-0.726778238
0.194402905,-0.728164700
0.194758955,-0.729549878
0.195115004,-0.730933818
0.195471053,-0.732316560
0.195827102,-0.737698145
0.196183152,-0.739078618
0.196539201,-0.740458019
0.196895250,-0.745836391
0.197251300,-0.747213775
0.197607349,-0.748590213
0.197963398,-0.749965747
0.198319447,-0.755340420
0.198675497,-0.756714273
0.199031546,-0.758087347
0.199387595,-0.759459683
0.199743645,-0.764831325
0.200099694,-0.766202311
0.200455743,-0.767572684
0.200811792,-0.768942486
0.201167842,-0.770311758
0.201523891,-0.771680541
0.201879940,-0.773048876
0.202235989,-0.774416804
0.202592039,-0.771784367
0.202948088,-0.773151605
0.203304137,-0.770518557
0.203660187,-0.771885267
0.204016236,-0.769251775
0.204372285,-0.770618121
0.204728334,-0.767984345
0.205084384,-0.765350488
0.205440433,-0.762716592
0.205796482,-0.760082695
0.206152532,-0.757448838
0.206508581,-0.754815063
0.206864630,-0.752181407
0.207220679,-0.749547912
0.207576729,-0.742914618
0.207932778,-0.740281564
0.208288827,-0.733648790
0.208644876,-0.731016338
0.209000926,-0.724384244
0.209356975,-0.717752549
0.209713024,-0.711121293
0.210069074,-0.704490515
0.210425123,-0.697860253
0.210781172,-0.687230548
0.211137221,-0.680601438
0.211493271,-0.669972963
0.211849320,-0.663345160
0.212205369,-0.652718069
0.212561419,-0.642091728
0.212917468,-0.631466174
0.213273517,-0.620841449
0.213629566,-0.606217587
0.213985616,-0.591594630
0.214341665,-0.576972613
0.214697714,-0.562351575
0.215053763,-0.547731554
0.215409813,-0.529112588
0.215765862,-0.514494713
0.216121911,-0.495877968
0.216477961,-0.477262389
0.216834010,-0.458648014
0.217190059,-0.436034879
0.217546108,-0.421423022
0.217902158,-0.398812479
0.218258207,-0.384203287
0.218614256,-0.361595481
0.218970305,-0.346989100
0.219326355,-0.324384178
0.219682404,-0.309780752
0.220038453,-0.291178858
0.220394503,-0.272578531
0.220750552,-0.257979807
0.221106601,-0.239382723
0.221462650,-0.224787312
0.221818700,-0.210193611
0.222174749,-0.199601653
0.222530798,-0.189011476
0.222886848,-0.178423112
0.223242897,-0.171836597
0.223598946,-0.161251967
0.223954995,-0.158669254
0.224311045,-0.156088493
0.224667094,-0.153509719
0.225023143,-0.150932963
0.225379192,-0.152358263
0.225735242,-0.153785650
0.226091291,-0.155215159
0.226447340,-0.160646821
0.226803390,-0.166080670
0.227159439,-0.171516741
0.227515488,-0.176955065
0.227871537,-0.186395676
0.228227587,-0.191838606
0.228583636,-0.201283887
0.228939685,-0.210731551
0.229295735,-0.220181629
0.229651784,-0.229634155
0.230007833,-0.239089160
0.230363882,-0.248546675
0.230719932,-0.258006732
0.231075981,-0.267469362
0.231432030,-0.280934597
0.231788079,-0.286402466
0.232144129,-0.295873002
0.232500178,-0.305346232
0.232856227,-0.314822188
0.233212277,-0.324300902
0.233568326,-0.329782402
0.233924375,-0.339266720
0.234280424,-0.344753882
0.234636474,-0.350243920
0.234992523,-0.355736863
0.235348572,-0.365232739
0.235704622,-0.370731578
0.236060671,-0.376233409
0.236416720,-0.381738260
0.236772769,-0.387246160
0.237128819,-0.392757135
0.237484868,-0.398271216
0.237840917,-0.403788429
0.238196966,-0.409308804
0.238553016,-0.414832365
0.238909065,-0.420359143
0.239265114,-0.425889162
0.239621164,-0.435422452
0.239977213,-0.436959037
0.240333262,-0.446498944
0.240689311,-0.452042202
0.241045361,-0.457588834
0.241401410,-0.463138869
0.241757459,-0.468692331
0.242113509,-0.474249248
0.242469558,-0.479809642
0.242825607,-0.485373540
0.243181656,-0.490940969
0.243537706,-0.496511951
0.243893755,-0.498086513
0.244249804,-0.503664679
0.244605853,-0.509246473
0.244961903,-0.510831919
0.245317952,-0.516421043
0.245674001,-0.518013868
0.246030051,-0.519610416
0.246386100,-0.521210713
0.246742149,-0.526814782
0.247098198,-0.524422644
0.247454248,-0.526034323
0.247810297,-0.527649844
0.248166346,-0.529269227
0.248522395,-0.526892496
0.248878445,-0.524519672
0.249234494,-0.526150778
0.249590543,-0.523785835
0.249946593,-0.521424865
0.250302642,-0.519067890
0.250658691,-0.516714929
0.251014740,-0.514366006
0.251370790,-0.512021141
0.251726839,-0.505680355
0.252082888,-0.503343669
0.252438938,-0.501011101
0.252794987,-0.494682674
0.253151036,-0.492358405
0.253507085,-0.486038316
0.253863135,-0.479722425
0.254219184,-0.473410753
0.254575233,-0.471103319
0.254931282,-0.464800139
0.255287332,-0.458501235
0.255643381,-0.452206625
0.255999430,-0.449916326
0.256355480,-0.443630357
0.256711529,-0.437348734
0.257067578,-0.431071477
0.257423627,-0.424798603
0.257779677,-0.418530129
0.258135726,-0.412266071
0.258491775,-0.406006446
0.258847825,-0.395751274
0.259203874,-0.393500568
0.259559923,-0.383254344
0.259915972,-0.377012620
0.260272022,-0.370775411
0.260628071,-0.364542732
0.260984120,-0.358314600
0.261340169,-0.352091030
0.261696219,-0.345872036
0.262052268,-0.335657635
0.262408317,-0.333447840
0.262764367,-0.323242665
0.263120416,-0.317042126
0.263476465,-0.310846236
0.263832514,-0.304655009
0.264188564,-0.298468460
0.264544613,-0.292286601
0.264900662,-0.290109444
0.265256712,-0.283937006
0.265612761,-0.277769298
0.265968810,-0.271606333
0.266324859,-0.269448123
0.266680909,-0.263294681
0.267036958,-0.261146021
0.267393007,-0.255002152
0.267749056,-0.252863087
0.268105106,-0.250728840
0.268461155,-0.248599419
0.268817204,-0.246474837
0.269173254,-0.244355106
0.269529303,-0.242240235
0.269885352,-0.240130236
0.270241401,-0.242025120
0.270597451,-0.239924897
0.270953500,-0.241829578
0.271309549,-0.239739171
0.271665599,-0.241653688
0.272021648,-0.243573137
0.272377697,-0.241497529
0.272733746,-0.243426872
0.273089796,-0.245361176
0.273445845,-0.247300449
0.273801894,-0.249244701
0.274157943,-0.251193940
0.274513993,-0.249148174
0.274870042,-0.251107412
0.275226091,-0.253071662
0.275582141,-0.255040930
0.275938190,-0.257015225
0.276294239,-0.258994556
0.276650288,-0.260978928
0.277006338,-0.262968348
0.277362387,-0.264962824
0.277718436,-0.266962363
0.278074486,-0.264966971
0.278430535,-0.266976655
0.278786584,-0.268991421
0.279142633,-0.267011275
0.279498683,-0.269036222
0.279854732,-0.271066268
0.280210781,-0.269101419
0.280566830,-0.271141680
0.280922880,-0.269187056
0.281278929,-0.271237552
0.281634978,-0.269293173
0.281991028,-0.267353923
0.282347077,-0.269419807
0.282703126,-0.267490831
0.283059175,-0.269566996
0.283415225,-0.267648307
0.283771274,-0.265734768
0.284127323,-0.267826382
0.284483372,-0.265923152
0.284839422,-0.264025082
0.285195471,-0.266132177
0.285551520,-0.264244436
0.285907570,-0.262361864
0.286263619,-0.264484463
0.286619668,-0.262612234
0.286975717,-0.264745181
0.287331767,-0.262883305
0.287687816,-0.265026608
0.288043865,-0.263175091
