x (mm),altura (µm)
0.000000000,-5.533031535
0.000356049,-5.530108164
0.000712099,-5.527184792
0.001068148,-5.524261421
0.001424197,-5.521338049
0.001780246,-5.518414678
0.002136296,-5.515491306
0.002492345,-5.512567935
0.002848394,-5.509644563
0.003204443,-5.506721192
0.003560493,-5.503797820
0.003916542,-5.496874449
0.004272591,-5.493951077
0.004628641,-5.491027706
0.004984690,-5.488104334
0.005340739,-5.481180963
0.005696788,-5.478257591
0.006052838,-5.471334220
0.006408887,-5.468410848
0.006764936,-5.461487477
0.007120986,-5.458564105
0.007477035,-5.451640734
0.007833084,-5.448717362
0.008189133,-5.441793991
0.008545183,-5.438870619
0.008901232,-5.431947248
0.009257281,-5.425023876
0.009613330,-5.422100505
0.009969380,-5.415177133
0.010325429,-5.408253762
0.010681478,-5.405330390
0.011037528,-5.398407019
0.011393577,-5.395483647
0.011749626,-5.388560276
0.012105675,-5.385636904
0.012461725,-5.378713533
0.012817774,-5.371790161
0.013173823,-5.368866790
0.013529873,-5.361943418
0.013885922,-5.359020047
0.014241971,-5.352096675
0.014598020,-5.349173304
0.014954070,-5.346249932
0.015310119,-5.339326561
0.015666168,-5.336403189
0.016022217,-5.333479818
0.016378267,-5.330556446
0.016734316,-5.327633075
0.017090365,-5.320709703
0.017446415,-5.317786332
0.017802464,-5.318862960
0.018158513,-5.315939589
0.018514562,-5.313016217
0.018870612,-5.310092846
0.019226661,-5.307169474
0.019582710,-5.308246103
0.019938760,-5.305322731
0.020294809,-5.302399360
0.020650858,-5.303475988
0.021006907,-5.304552617
0.021362957,-5.301629245
0.021719006,-5.302705874
0.022075055,-5.303782502
0.022431104,-5.300859131
0.022787154,-5.301935759
0.023143203,-5.303012388
0.023499252,-5.304089017
0.023855302,-5.305165645
0.024211351,-5.302242274
0.024567400,-5.303318902
0.024923449,-5.304395531
0.025279499,-5.305472159
0.025635548,-5.306548788
0.025991597,-5.307625416
0.026347647,-5.308702045
0.026703696,-5.309778673
0.027059745,-5.310855302
0.027415794,-5.311931930
0.027771844,-5.313008559
0.028127893,-5.314085187
0.028483942,-5.315161816
0.028839991,-5.316238444
0.029196041,-5.317315073
0.029552090,-5.318391701
0.029908139,-5.319468330
0.030264189,-5.324544958
0.030620238,-5.325621587
0.030976287,-5.326698215
0.031332336,-5.331774844
0.031688386,-5.332851472
0.032044435,-5.333928101
0.032400484,-5.335004729
0.032756534,-5.340081358
0.033112583,-5.341157986
0.033468632,-5.346234615
0.033824681,-5.347311243
0.034180731,-5.352387872
0.034536780,-5.357464500
0.034892829,-5.358541129
0.035248878,-5.363617757
0.035604928,-5.368694386
0.035960977,-5.373771014
0.036317026,-5.378847643
0.036673076,-5.383924271
0.037029125,-5.389000900
0.037385174,-5.394077528
0.037741223,-5.399154157
0.038097273,-5.404230785
0.038453322,-5.409307414
0.038809371,-5.414384042
0.039165420,-5.419460671
0.039521470,-5.424537299
0.039877519,-5.429613928
0.040233568,-5.434690556
0.040589618,-5.443767185
0.040945667,-5.448843813
0.041301716,-5.453920442
0.041657765,-5.458997070
0.042013815,-5.464073699
0.042369864,-5.469150327
0.042725913,-5.474226956
0.043081963,-5.479303584
0.043438012,-5.484380213
0.043794061,-5.485456841
0.044150110,-5.490533470
0.044506160,-5.495610098
0.044862209,-5.496686727
0.045218258,-5.497763355
0.045574307,-5.502839984
0.045930357,-5.503916612
0.046286406,-5.504993241
0.046642455,-5.506069869
0.046998505,-5.507146498
0.047354554,-5.504223126
0.047710603,-5.505299755
0.048066652,-5.502376383
0.048422702,-5.503453012
0.048778751,-5.500529640
0.049134800,-5.497606269
0.049490850,-5.494682897
0.049846899,-5.487759526
0.050202948,-5.484836154
0.050558997,-5.481912783
0.050915047,-5.474989411
0.051271096,-5.468066040
0.051627145,-5.465142668
0.051983194,-5.458219297
0.052339244,-5.451295925
0.052695293,-5.444372554
0.053051342,-5.437449182
0.053407392,-5.430525811
0.053763441,-5.423602439
0.054119490,-5.416679068
0.054475539,-5.405755696
0.054831589,-5.398832325
0.055187638,-5.391908953
0.055543687,-5.384985582
0.055899737,-5.378062210
0.056255786,-5.367138839
0.056611835,-5.364215467
0.056967884,-5.353292096
0.057323934,-5.346368724
0.057679983,-5.339445353
0.058036032,-5.332521981
0.058392081,-5.325598610
0.058748131,-5.322675238
0.059104180,-5.315751867
0.059460229,-5.308828495
0.059816279,-5.305905124
0.060172328,-5.298981752
0.060528377,-5.296058381
0.060884426,-5.289135009
0.061240476,-5.286211638
0.061596525,-5.279288266
0.061952574,-5.276364895
0.062308624,-5.273441523
0.062664673,-5.266518152
0.063020722,-5.263594780
0.063376771,-5.260671409
0.063732821,-5.257748037
0.064088870,-5.254824666
0.064444919,-5.251901294
0.064800968,-5.244977923
0.065157018,-5.242054551
0.065513067,-5.239131180
0.065869116,-5.236207808
0.066225166,-5.233284437
0.066581215,-5.230361065
0.066937264,-5.227437694
0.067293313,-5.228514322
0.067649363,-5.225590951
0.068005412,-5.222667579
0.068361461,-5.219744208
0.068717511,-5.216820836
0.069073560,-5.213897465
0.069429609,-5.210974093
0.069785658,-5.212050722
0.070141708,-5.209127350
0.070497757,-5.206203979
0.070853806,-5.207280607
0.071209855,-5.204357236
0.071565905,-5.205433864
0.071921954,-5.202510493
0.072278003,-5.203587121
0.072634053,-5.204663750
0.072990102,-5.205740378
0.073346151,-5.206817007
0.073702200,-5.207893635
0.074058250,-5.208970264
0.074414299,-5.210046892
0.074770348,-5.211123521
0.075126397,-5.212200150
0.075482447,-5.217276778
0.075838496,-5.218353407
0.076194545,-5.219430035
0.076550595,-5.220506664
0.076906644,-5.225583292
0.077262693,-5.226659921
0.077618742,-5.227736549
0.077974792,-5.232813178
0.078330841,-5.233889806
0.078686890,-5.238966435
0.079042940,-5.240043063
0.079398989,-5.241119692
0.079755038,-5.246196320
0.080111087,-5.247272949
0.080467137,-5.248349577
0.080823186,-5.249426206
0.081179235,-5.250502834
0.081535284,-5.251579463
0.081891334,-5.252656091
0.082247383,-5.253732720
0.082603432,-5.254809348
0.082959482,-5.255885977
0.083315531,-5.256962605
0.083671580,-5.254039234
0.084027629,-5.255115862
0.084383679,-5.256192491
0.084739728,-5.253269119
0.085095777,-5.254345748
0.085451827,-5.251422376
0.085807876,-5.252499005
0.086163925,-5.249575633
0.086519974,-5.250652262
0.086876024,-5.247728890
0.087232073,-5.248805519
0.087588122,-5.245882147
0.087944171,-5.242958776
0.088300221,-5.244035404
0.088656270,-5.241112033
0.089012319,-5.242188661
0.089368369,-5.239265290
0.089724418,-5.236341918
0.090080467,-5.237418547
0.090436516,-5.234495175
0.090792566,-5.235571804
0.091148615,-5.232648432
0.091504664,-5.233725061
0.091860714,-5.230801689
0.092216763,-5.231878318
0.092572812,-5.228954946
0.092928861,-5.230031575
0.093284911,-5.227108203
0.093640960,-5.228184832
0.093997009,-5.225261460
0.094353058,-5.226338089
0.094709108,-5.223414717
0.095065157,-5.224491346
0.095421206,-5.221567974
0.095777256,-5.222644603
0.096133305,-5.223721231
0.096489354,-5.220797860
0.096845403,-5.221874488
0.097201453,-5.222951117
0.097557502,-5.220027745
0.097913551,-5.221104374
0.098269601,-5.218181002
0.098625650,-5.219257631
0.098981699,-5.220334259
0.099337748,-5.221410888
0.099693798,-5.222487516
0.100049847,-5.219564145
0.100405896,-5.220640773
0.100761945,-5.221717402
0.101117995,-5.222794030
0.101474044,-5.223870659
0.101830093,-5.224947287
0.102186143,-5.226023916
0.102542192,-5.227100544
0.102898241,-5.228177173
0.103254290,-5.225253801
0.103610340,-5.226330430
0.103966389,-5.227407058
0.104322438,-5.228483687
0.104678488,-5.229560315
0.105034537,-5.230636944
0.105390586,-5.227713572
0.105746635,-5.228790201
0.106102685,-5.225866829
0.106458734,-5.226943458
0.106814783,-5.224020086
0.107170832,-5.225096715
0.107526882,-5.222173343
0.107882931,-5.223249972
0.108238980,-5.220326600
0.108595030,-5.217403229
0.108951079,-5.214479857
0.109307128,-5.215556486
0.109663177,-5.212633114
0.110019227,-5.209709743
0.110375276,-5.206786371
0.110731325,-5.203863000
0.111087374,-5.200939628
0.111443424,-5.198016257
0.111799473,-5.195092885
0.112155522,-5.188169514
0.112511572,-5.185246142
0.112867621,-5.182322771
0.113223670,-5.179399399
0.113579719,-5.176476028
0.113935769,-5.173552656
0.114291818,-5.170629285
0.114647867,-5.167705913
0.115003917,-5.164782542
0.115359966,-5.165859170
0.115716015,-5.162935799
0.116072064,-5.160012427
0.116428114,-5.157089056
0.116784163,-5.158165684
0.117140212,-5.155242313
0.117496261,-5.152318941
0.117852311,-5.153395570
0.118208360,-5.150472198
0.118564409,-5.147548827
0.118920459,-5.148625455
0.119276508,-5.145702084
0.119632557,-5.146778712
0.119988606,-5.143855341
0.120344656,-5.144931969
0.120700705,-5.142008598
0.121056754,-5.143085226
0.121412804,-5.140161855
0.121768853,-5.141238483
0.122124902,-5.142315112
0.122480951,-5.143391740
0.122837001,-5.144468369
0.123193050,-5.141544997
0.123549099,-5.142621626
0.123905148,-5.143698254
0.124261198,-5.144774883
0.124617247,-5.145851511
0.124973296,-5.146928140
0.125329346,-5.148004768
0.125685395,-5.149081397
0.126041444,-5.150158026
0.126397493,-5.151234654
0.126753543,-5.156311283
0.127109592,-5.157387911
0.127465641,-5.158464540
0.127821691,-5.163541168
0.128177740,-5.164617797
0.128533789,-5.169694425
0.128889838,-5.170771054
0.129245888,-5.175847682
0.129601937,-5.176924311
0.129957986,-5.182000939
0.130314035,-5.183077568
0.130670085,-5.188154196
0.131026134,-5.189230825
0.131382183,-5.194307453
0.131738233,-5.199384082
0.132094282,-5.200460710
0.132450331,-5.205537339
0.132806380,-5.206613967
0.133162430,-5.211690596
0.133518479,-5.216767224
0.133874528,-5.217843853
0.134230578,-5.222920481
0.134586627,-5.227997110
0.134942676,-5.233073738
0.135298725,-5.238150367
0.135654775,-5.243226995
0.136010824,-5.248303624
0.136366873,-5.257380252
0.136722922,-5.262456881
0.137078972,-5.267533509
0.137435021,-5.276610138
0.137791070,-5.281686766
0.138147120,-5.290763395
0.138503169,-5.295840023
0.138859218,-5.304916652
0.139215267,-5.313993280
0.139571317,-5.323069909
0.139927366,-5.336146537
0.140283415,-5.345223166
0.140639465,-5.354299794
0.140995514,-5.363376423
0.141351563,-5.376453051
0.141707612,-5.385529680
0.142063662,-5.398606308
0.142419711,-5.411682937
0.142775760,-5.424759565
0.143131809,-5.437836194
0.143487859,-5.446912822
0.143843908,-5.459989451
0.144199957,-5.469066079
0.144556007,-5.482142708
0.144912056,-5.495219336
0.145268105,-5.508295965
0.145624154,-5.517372593
0.145980204,-5.530449222
0.146336253,-5.539525850
0.146692302,-5.548602479
0.147048351,-5.561679107
0.147404401,-5.570755736
0.147760450,-5.579832364
0.148116499,-5.584908993
0.148472549,-5.593985621
0.148828598,-5.603062250
0.149184647,-5.608138878
0.149540696,-5.617215507
0.149896746,-5.622292135
0.150252795,-5.627368764
0.150608844,-5.628445392
0.150964894,-5.633522021
0.151320943,-5.634598649
0.151676992,-5.639675278
0.152033041,-5.640751906
0.152389091,-5.641828535
0.152745140,-5.642905163
0.153101189,-5.643981792
0.153457238,-5.645058420
0.153813288,-5.642135049
0.154169337,-5.643211677
0.154525386,-5.640288306
0.154881436,-5.637364934
0.155237485,-5.634441563
0.155593534,-5.631518191
0.155949583,-5.628594820
0.156305633,-5.625671448
0.156661682,-5.622748077
0.157017731,-5.619824705
0.157373781,-5.616901334
0.157729830,-5.613977962
0.158085879,-5.611054591
0.158441928,-5.604131219
0.158797978,-5.601207848
0.159154027,-5.598284476
0.159510076,-5.595361105
0.159866125,-5.592437733
0.160222175,-5.589514362
0.160578224,-5.586590990
0.160934273,-5.587667619
0.161290323,-5.584744247
0.161646372,-5.581820876
0.162002421,-5.582897504
0.162358470,-5.579974133
0.162714520,-5.581050761
0.163070569,-5.582127390
0.163426618,-5.583204018
0.163782668,-5.584280647
0.164138717,-5.585357275
0.164494766,-5.590433904
0.164850815,-5.595510532
0.165206865,-5.596587161
0.165562914,-5.601663789
0.165918963,-5.606740418
0.166275012,-5.611817046
0.166631062,-5.616893675
0.166987111,-5.621970303
0.167343160,-5.627046932
0.167699210,-5.632123560
0.168055259,-5.641200189
0.168411308,-5.646276817
0.168767357,-5.651353446
0.169123407,-5.656430074
0.169479456,-5.665506703
0.169835505,-5.670583331
0.170191555,-5.679659960
0.170547604,-5.684736588
0.170903653,-5.689813217
0.171259702,-5.698889845
0.171615752,-5.703966474
0.171971801,-5.709043102
0.172327850,-5.714119731
0.172683899,-5.719196359
0.173039949,-5.724272988
0.173395998,-5.729349616
0.173752047,-5.734426245
0.174108097,-5.739502873
0.174464146,-5.744579502
0.174820195,-5.745656130
0.175176244,-5.750732759
0.175532294,-5.755809387
0.175888343,-5.756886016
0.176244392,-5.761962644
0.176600442,-5.767039273
0.176956491,-5.772115902
0.177312540,-5.773192530
0.177668589,-5.778269159
0.178024639,-5.783345787
0.178380688,-5.784422416
0.178736737,-5.789499044
0.179092786,-5.794575673
0.179448836,-5.795652301
0.179804885,-5.800728930
0.180160934,-5.805805558
0.180516984,-5.810882187
0.180873033,-5.815958815
0.181229082,-5.821035444
0.181585131,-5.826112072
0.181941181,-5.831188701
0.182297230,-5.836265329
0.182653279,-5.841341958
0.183009328,-5.846418586
0.183365378,-5.855495215
0.183721427,-5.860571843
0.184077476,-5.865648472
0.184433526,-5.870725100
0.184789575,-5.875801729
0.185145624,-5.880878357
0.185501673,-5.885954986
0.185857723,-5.891031614
0.186213772,-5.896108243
0.186569821,-5.901184871
0.186925871,-5.906261500
0.187281920,-5.911338128
0.187637969,-5.912414757
0.187994018,-5.917491385
0.188350068,-5.918568014
0.188706117,-5.923644642
0.189062166,-5.924721271
0.189418215,-5.925797899
0.189774265,-5.926874528
0.190130314,-5.923951156
0.190486363,-5.925027785
0.190842413,-5.922104413
0.191198462,-5.919181042
0.191554511,-5.916257670
0.191910560,-5.913334299
0.192266610,-5.906410927
0.192622659,-5.899487556
0.192978708,-5.892564184
0.193334758,-5.885640813
0.193690807,-5.874717441
0.194046856,-5.863794070
0.194402905,-5.852870698
0.194758955,-5.841947327
0.195115004,-5.827023955
0.195471053,-5.812100584
0.195827102,-5.797177212
0.196183152,-5.778253841
0.196539201,-5.763330469
0.196895250,-5.744407098
0.197251300,-5.725483726
0.197607349,-5.702560355
0.197963398,-5.687636983
0.198319447,-5.664713612
0.198675497,-5.641790240
0.199031546,-5.622866869
0.199387595,-5.599943497
0.199743645,-5.581020126
0.200099694,-5.558096754
0.200455743,-5.539173383
0.200811792,-5.516250011
0.201167842,-5.497326640
0.201523891,-5.478403268
0.201879940,-5.455479897
0.202235989,-5.440556525
0.202592039,-5.417633154
0.202948088,-5.402709782
0.203304137,-5.383786411
0.203660187,-5.368863039
0.204016236,-5.353939668
0.204372285,-5.339016296
0.204728334,-5.324092925
0.205084384,-5.309169553
0.205440433,-5.298246182
0.205796482,-5.287322810
0.206152532,-5.276399439
0.206508581,-5.265476067
0.206864630,-5.254552696
0.207220679,-5.247629324
0.207576729,-5.240705953
0.207932778,-5.229782581
0.208288827,-5.222859210
0.208644876,-5.215935838
0.209000926,-5.213012467
0.209356975,-5.206089095
0.209713024,-5.199165724
0.210069074,-5.196242352
0.210425123,-5.189318981
0.210781172,-5.186395609
0.211137221,-5.183472238
0.211493271,-5.180548866
0.211849320,-5.177625495
0.212205369,-5.174702123
0.212561419,-5.171778752
0.212917468,-5.168855380
0.213273517,-5.169932009
0.213629566,-5.167008637
0.213985616,-5.168085266
0.214341665,-5.165161894
0.214697714,-5.166238523
0.215053763,-5.163315151
0.215409813,-5.164391780
0.215765862,-5.165468408
0.216121911,-5.162545037
0.216477961,-5.163621665
0.216834010,-5.164698294
0.217190059,-5.165774922
0.217546108,-5.166851551
0.217902158,-5.167928179
0.218258207,-5.169004808
0.218614256,-5.174081436
0.218970305,-5.175158065
0.219326355,-5.176234693
0.219682404,-5.177311322
0.220038453,-5.182387950
0.220394503,-5.183464579
0.220750552,-5.184541207
0.221106601,-5.189617836
0.221462650,-5.190694464
0.221818700,-5.195771093
0.222174749,-5.196847721
0.222530798,-5.197924350
0.222886848,-5.199000978
0.223242897,-5.204077607
0.223598946,-5.205154235
0.223954995,-5.210230864
0.224311045,-5.211307492
0.224667094,-5.212384121
0.225023143,-5.217460749
0.225379192,-5.218537378
0.225735242,-5.223614006
0.226091291,-5.224690635
0.226447340,-5.225767263
0.226803390,-5.230843892
0.227159439,-5.231920520
0.227515488,-5.232997149
0.227871537,-5.238073778
0.228227587,-5.239150406
0.228583636,-5.240227035
0.228939685,-5.245303663
0.229295735,-5.246380292
0.229651784,-5.251456920
0.230007833,-5.256533549
0.230363882,-5.257610177
0.230719932,-5.262686806
0.231075981,-5.263763434
0.231432030,-5.268840063
0.231788079,-5.273916691
0.232144129,-5.278993320
0.232500178,-5.284069948
0.232856227,-5.289146577
0.233212277,-5.294223205
0.233568326,-5.299299834
0.233924375,-5.304376462
0.234280424,-5.309453091
0.234636474,-5.314529719
0.234992523,-5.319606348
0.235348572,-5.328682976
0.235704622,-5.333759605
0.236060671,-5.338836233
0.236416720,-5.343912862
0.236772769,-5.348989490
0.237128819,-5.358066119
0.237484868,-5.363142747
0.237840917,-5.368219376
0.238196966,-5.373296004
0.238553016,-5.378372633
0.238909065,-5.387449261
0.239265114,-5.388525890
0.239621164,-5.393602518
0.239977213,-5.398679147
0.240333262,-5.403755775
0.240689311,-5.408832404
0.241045361,-5.409909032
0.241401410,-5.414985661
0.241757459,-5.416062289
0.242113509,-5.421138918
0.242469558,-5.422215546
0.242825607,-5.423292175
0.243181656,-5.428368803
0.243537706,-5.429445432
0.243893755,-5.430522060
0.244249804,-5.431598689
0.244605853,-5.432675317
0.244961903,-5.433751946
0.245317952,-5.434828574
0.245674001,-5.435905203
0.246030051,-5.436981831
0.246386100,-5.438058460
0.246742149,-5.435135088
0.247098198,-5.436211717
0.247454248,-5.437288345
0.247810297,-5.438364974
0.248166346,-5.435441602
0.248522395,-5.436518231
0.248878445,-5.437594859
0.249234494,-5.438671488
0.249590543,-5.435748116
0.249946593,-5.436824745
0.250302642,-5.437901373
0.250658691,-5.438978002
0.251014740,-5.440054630
0.251370790,-5.437131259
0.251726839,-5.438207887
0.252082888,-5.439284516
0.252438938,-5.440361144
0.252794987,-5.441437773
0.253151036,-5.438514401
0.253507085,-5.439591030
0.253863135,-5.440667658
0.254219184,-5.441744287
0.254575233,-5.442820915
0.254931282,-5.443897544
0.255287332,-5.444974172
0.255643381,-5.446050801
0.255999430,-5.447127429
0.256355480,-5.448204058
0.256711529,-5.449280686
0.257067578,-5.454357315
0.257423627,-5.455433943
0.257779677,-5.456510572
0.258135726,-5.461587200
0.258491775,-5.462663829
0.258847825,-5.467740457
0.259203874,-5.468817086
0.259559923,-5.469893714
0.259915972,-5.474970343
0.260272022,-5.480046971
0.260628071,-5.481123600
0.260984120,-5.486200228
0.261340169,-5.491276857
0.261696219,-5.492353485
0.262052268,-5.497430114
0.262408317,-5.502506742
0.262764367,-5.503583371
0.263120416,-5.508659999
0.263476465,-5.513736628
0.263832514,-5.514813256
0.264188564,-5.515889885
0.264544613,-5.520966513
0.264900662,-5.522043142
0.265256712,-5.523119770
0.265612761,-5.524196399
0.265968810,-5.521273027
0.266324859,-5.522349656
0.266680909,-5.519426284
0.267036958,-5.520502913
0.267393007,-5.517579541
0.267749056,-5.514656170
0.268105106,-5.511732798
0.268461155,-5.508809427
0.268817204,-5.505886055
0.269173254,-5.498962684
0.269529303,-5.496039312
0.269885352,-5.489115941
0.270241401,-5.482192569
0.270597451,-5.479269198
0.270953500,-5.468345826
0.271309549,-5.465422455
0.271665599,-5.454499083
0.272021648,-5.447575712
0.272377697,-5.440652340
0.272733746,-5.433728969
0.273089796,-5.426805597
0.273445845,-5.419882226
0.273801894,-5.412958854
0.274157943,-5.402035483
0.274513993,-5.399112111
0.274870042,-5.388188740
0.275226091,-5.385265368
0.275582141,-5.378341997
0.275938190,-5.371418625
0.276294239,-5.364495254
0.276650288,-5.357571882
0.277006338,-5.350648511
0.277362387,-5.347725139
0.277718436,-5.340801768
0.278074486,-5.337878396
0.278430535,-5.330955025
0.278786584,-5.328031653
0.279142633,-5.321108282
0.279498683,-5.318184911
0.279854732,-5.315261539
0.280210781,-5.312338168
0.280566830,-5.309414796
0.280922880,-5.302491425
0.281278929,-5.299568053
0.281634978,-5.296644682
0.281991028,-5.293721310
0.282347077,-5.294797939
0.282703126,-5.291874567
0.283059175,-5.288951196
0.283415225,-5.286027824
0.283771274,-5.283104453
0.284127323,-5.284181081
